0.0;0.03289
0.002;0.00422
0.004;-0.01199
0.006;-0.00252
0.008;0.02661
0.01;0.03571
0.012;-0.00731
0.014;0.02064
0.016;-0.01774
0.018;-0.01387
0.02;0.02389
0.022;0.01031
0.024;0.00159
0.026;0.00339
0.028;0.02044
0.03;0.01988
0.032;0.02238
0.034;0.00848
0.036;0.04032
0.038;-0.00126
0.04;-0.02402
0.042;0.01685
0.044;-0.01069
0.046;0.03786
0.048;0.00746
0.05;-0.01734
0.052;-0.02178
0.054;0.02238
0.056;-0.00729
0.058;0.00418
0.06;0.00896
0.062;0.02878
0.064;0.04704
0.066;0.01806
0.068;0.00869
0.07;0.02644
0.072;0.00297
0.074;-0.02535
0.076;0.00427
0.078;0.02226
0.08;-0.0021
0.082;-0.0119
0.084;-0.00333
0.086;0.02304
0.088;-0.00646
0.09;0.01674
0.092;-0.02395
0.094;0.01503
0.096;0.048
0.098;-0.00477
0.1;0.03869
0.102;-0.00692
0.104;-0.0007
0.106;-0.01943
0.108;-0.00029
0.11;0.0065
0.112;-0.0073
0.114;0.01842
0.116;0.01934
0.118;0.04826
0.12;0.01926
0.122;0.01616
0.124;-0.00026
0.126;0.01401
0.128;0.00175
0.13;-0.00945
0.132;0.01867
0.134;0.06495
0.136;0.01696
0.138;-0.00518
0.14;-0.02867
0.142;-0.00851
0.144;-0.00871
0.146;0.00519
0.148;0.01586
0.15;0.01196
0.152;0.00055
0.154;0.022
0.156;-0.00144
0.158;0.00881
0.16;0.01131
0.162;-0.0013
0.164;-0.00212
0.166;0.00842
0.168;0.02486
0.17;0.02491
0.172;0.00561
0.174;0.03499
0.176;0.04058
0.178;-0.01524
0.18;-0.01983
0.182;0.01522
0.184;0.02132
0.186;0.02495
0.188;0.01757
0.19;0.03532
0.192;-0.00363
0.194;0.03317
0.196;-0.00611
0.198;-0.00366
0.2;-0.00297
0.202;0.00088
0.204;0.02258
0.206;-0.00054
0.208;-0.00229
0.21;0.03398
0.212;0.01986
0.214;-0.00687
0.216;0.02189
0.218;0.0056
0.22;-0.01305
0.222;0.02483
0.224;0.03203
0.226;0.01261
0.228;0.00586
0.23;0.05154
0.232;0.01135
0.234;-0.02246
0.236;0.01017
0.238;0.03452
0.24;0.00828
0.242;0.00178
0.244;0.01951
0.246;0.00041
0.248;0.00828
0.25;-0.00085
0.252;0.04134
0.254;0.03455
0.256;0.03591
0.258;-0.03082
0.26;0.04564
0.262;-0.00369
0.264;0.0088
0.266;-0.00236
0.268;-2e-05
0.27;0.02619
0.272;-0.02617
0.274;0.0135
0.276;0.00259
0.278;0.01006
0.28;-0.01946
0.282;0.02394
0.284;-0.01113
0.286;0.00429
0.288;0.03898
0.29;-0.01133
0.292;0.01559
0.294;0.02179
0.296;0.05385
0.298;-0.00531
0.3;0.00745
0.302;0.00216
0.304;0.00765
0.306;0.00555
0.308;0.00914
0.31;0.0317
0.312;-0.00636
0.314;0.01719
0.316;0.01812
0.318;0.05672
0.32;0.03577
0.322;0.0247
0.324;0.03823
0.326;0.01772
0.328;0.00096
0.33;0.00544
0.332;0.04854
0.334;0.04575
0.336;0.02576
0.338;0.03941
0.34;0.01115
0.342;0.00895
0.344;0.03508
0.346;0.03302
0.348;-0.01085
0.35;0.03521
0.352;0.0201
0.354;0.03744
0.356;-0.00324
0.358;0.00479
0.36;0.03901
0.362;0.01006
0.364;0.00082
0.366;0.02625
0.368;0.02959
0.37;0.02914
0.372;0.00859
0.374;0.04792
0.376;0.01799
0.378;0.01535
0.38;-0.03108
0.382;-0.00724
0.384;0.03308
0.386;0.02251
0.388;0.02193
0.39;0.04362
0.392;0.01732
0.394;-0.02985
0.396;0.01866
0.398;0.0163
0.4;0.03916
0.402;0.04704
0.404;0.00389
0.406;0.03223
0.408;0.01603
0.41;0.03232
0.412;-0.01026
0.414;0.01535
0.416;0.04337
0.418;0.0312
0.42;0.02732
0.422;0.01303
0.424;0.02229
0.426;-0.00438
0.428;0.03821
0.43;0.02244
0.432;0.0276
0.434;0.01523
0.436;-0.01166
0.438;-0.01773
0.44;0.03919
0.442;0.02099
0.444;0.02504
0.446;0.03568
0.448;0.00498
0.45;0.0339
0.452;0.02524
0.454;0.02662
0.456;0.01318
0.458;0.03014
0.46;0.02714
0.462;-0.00743
0.464;0.03603
0.466;0.03645
0.468;0.0166
0.47;0.02709
0.472;0.02427
0.474;0.00897
0.476;0.02795
0.478;0.02345
0.48;0.00895
0.482;0.01704
0.484;-0.0019
0.486;0.01972
0.488;0.00661
0.49;0.03869
0.492;0.02238
0.494;0.0176
0.496;0.04753
0.498;0.02613
0.5;0.04903
0.502;0.047
0.504;0.02644
0.506;0.02056
0.508;-0.00902
0.51;0.04186
0.512;0.01616
0.514;0.03873
0.516;0.02821
0.518;0.03597
0.52;0.01539
0.522;0.03205
0.524;0.05385
0.526;0.01276
0.528;0.03448
0.53;0.0266
0.532;0.04687
0.534;0.04916
0.536;0.05269
0.538;-0.00145
0.54;0.04659
0.542;0.03362
0.544;0.00189
0.546;0.00249
0.548;0.02367
0.55;0.03692
0.552;0.02485
0.554;0.0193
0.556;0.01259
0.558;0.03218
0.56;0.02399
0.562;0.05015
0.564;0.04805
0.566;0.05917
0.568;0.0662
0.57;0.04096
0.572;0.0275
0.574;0.04887
0.576;0.04908
0.578;0.02757
0.58;0.05839
0.582;0.07376
0.584;0.04783
0.586;0.04216
0.588;0.0399
0.59;0.07247
0.592;0.07386
0.594;0.09328
0.596;0.07675
0.598;0.07144
0.6;0.08343
0.602;0.09395
0.604;0.10674
0.606;0.11473
0.608;0.10907
0.61;0.07087
0.612;0.11726
0.614;0.11556
0.616;0.07585
0.618;0.06369
0.62;0.11385
0.622;0.10441
0.624;0.07782
0.626;0.12896
0.628;0.10725
0.63;0.11551
0.632;0.09595
0.634;0.12705
0.636;0.08601
0.638;0.11018
0.64;0.08187
0.642;0.09058
0.644;0.12187
0.646;0.08899
0.648;0.10625
0.65;0.06781
0.652;0.05847
0.654;0.07048
0.656;0.0388
0.658;0.06338
0.66;0.04715
0.662;0.07178
0.664;0.08714
0.666;0.04143
0.668;0.05289
0.67;0.05369
0.672;0.05102
0.674;0.03515
0.676;0.04737
0.678;0.07842
0.68;0.03941
0.682;0.07837
0.684;0.02637
0.686;0.02415
0.688;0.02425
0.69;0.04091
0.692;0.06207
0.694;0.0147
0.696;0.04096
0.698;0.03885
0.7;0.03393
0.702;0.0328
0.704;0.03727
0.706;-0.01068
0.708;0.03784
0.71;0.0723
0.712;0.03027
0.714;0.02901
0.716;0.02321
0.718;0.04849
0.72;0.01087
0.722;0.06087
0.724;0.05086
0.726;0.05723
0.728;0.02442
0.73;0.07495
0.732;0.03698
0.734;0.05374
0.736;0.05254
0.738;0.03752
0.74;0.04886
0.742;0.06004
0.744;0.03587
0.746;0.02696
0.748;0.03984
0.75;0.01316
0.752;0.05038
0.754;0.04235
0.756;0.0243
0.758;0.03236
0.76;-0.01975
0.762;-0.01065
0.764;-0.04936
0.766;-0.03174
0.768;-0.03562
0.77;-0.00718
0.772;0.0397
0.774;0.11837
0.776;0.16751
0.778;0.19779
0.78;0.31403
0.782;0.37062
0.784;0.46497
0.786;0.63139
0.788;0.69578
0.79;0.78789
0.792;0.92178
0.794;0.90301
0.796;0.99201
0.798;1.01751
0.8;1.02343
0.802;1.01527
0.804;0.99575
0.806;0.92837
0.808;0.83454
0.81;0.74871
0.812;0.59566
0.814;0.48522
0.816;0.36724
0.818;0.26797
0.82;0.15479
0.822;0.09548
0.824;0.01693
0.826;-0.04025
0.828;-0.11839
0.83;-0.10275
0.832;-0.10442
0.834;-0.16692
0.836;-0.13663
0.838;-0.13052
0.84;-0.15863
0.842;-0.13206
0.844;-0.08424
0.846;-0.08154
0.848;-0.04414
0.85;0.00822
0.852;0.00582
0.854;0.03028
0.856;-0.0162
0.858;0.06447
0.86;-0.00091
0.862;0.06405
0.864;0.06651
0.866;0.03763
0.868;0.03373
0.87;0.03032
0.872;0.0411
0.874;0.02182
0.876;0.01137
0.878;0.03869
0.88;0.05695
0.882;0.01995
0.884;0.06624
0.886;0.04456
0.888;0.06615
0.89;0.07556
0.892;0.01286
0.894;0.02448
0.896;0.03096
0.898;0.0213
0.9;0.02089
0.902;0.0715
0.904;0.02204
0.906;0.06896
0.908;0.02391
0.91;0.03236
0.912;0.05277
0.914;0.03824
0.916;0.02897
0.918;0.06057
0.92;0.0545
0.922;0.06343
0.924;0.06712
0.926;0.03381
0.928;0.06598
0.93;0.08394
0.932;0.0414
0.934;0.07799
0.936;0.05015
0.938;0.08843
0.94;0.06069
0.942;0.07782
0.944;0.08025
0.946;0.06921
0.948;0.11863
0.95;0.08379
0.952;0.07643
0.954;0.0883
0.956;0.09829
0.958;0.05212
0.96;0.11294
0.962;0.09131
0.964;0.12204
0.966;0.12177
0.968;0.11098
0.97;0.12058
0.972;0.12796
0.974;0.13474
0.976;0.15475
0.978;0.11223
0.98;0.18134
0.982;0.1317
0.984;0.15214
0.986;0.12338
0.988;0.13853
0.99;0.17488
0.992;0.15927
0.994;0.2033
0.996;0.18409
0.998;0.2317
1.0;0.20992
1.002;0.21216
1.004;0.205
1.006;0.21357
1.008;0.19952
1.01;0.20675
1.012;0.23926
1.014;0.21422
1.016;0.24219
1.018;0.26161
1.02;0.26165
1.022;0.23901
1.024;0.26714
1.026;0.25043
1.028;0.25636
1.03;0.24604
1.032;0.26742
1.034;0.28658
1.036;0.25777
1.038;0.28577
1.04;0.30459
1.042;0.28899
1.044;0.28013
1.046;0.30958
1.048;0.29723
1.05;0.29524
1.052;0.32042
1.054;0.30062
1.056;0.28662
1.058;0.27994
1.06;0.28206
1.062;0.29931
1.064;0.27242
1.066;0.28797
1.068;0.29682
1.07;0.29313
1.072;0.29139
1.074;0.26243
1.076;0.21292
1.078;0.24953
1.08;0.24064
1.082;0.27064
1.084;0.21652
1.086;0.23603
1.088;0.19369
1.09;0.22826
1.092;0.23737
1.094;0.25066
1.096;0.23973
1.098;0.17473
1.1;0.1951
1.102;0.19253
1.104;0.18729
1.106;0.16196
1.108;0.1735
1.11;0.16581
1.112;0.17227
1.114;0.16063
1.116;0.12368
1.118;0.15978
1.12;0.14004
1.122;0.10198
1.124;0.12829
1.126;0.11135
1.128;0.1009
1.13;0.09368
1.132;0.10648
1.134;0.14017
1.136;0.11722
1.138;0.12014
1.14;0.1015
1.142;0.1001
1.144;0.09107
1.146;0.09748
1.148;0.06606
1.15;0.06429
1.152;0.11195
1.154;0.1036
1.156;0.05424
1.158;0.07429
1.16;0.07883
1.162;0.06148
1.164;0.05172
1.166;0.04542
1.168;0.03732
1.17;0.08269
1.172;0.05399
1.174;0.06673
1.176;0.06625
1.178;0.04354
1.18;0.07139
1.182;0.04386
1.184;0.04291
1.186;0.0187
1.188;0.03904
1.19;0.0196
1.192;0.0729
1.194;0.03698
1.196;0.02086
1.198;0.04001
1.2;0.02906
1.202;0.02364
1.204;0.04934
1.206;0.05665
1.208;0.04723
1.21;0.01398
1.212;0.05411
1.214;0.05157
1.216;0.05544
1.218;0.04402
1.22;0.02916
1.222;0.0381
1.224;0.03488
1.226;0.04465
1.228;0.0418
1.23;0.00791
1.232;0.06547
1.234;0.0473
1.236;0.02373
1.238;0.03783
1.24;0.0621
1.242;0.00986
1.244;0.02817
1.246;0.03002
1.248;0.02305
1.25;0.04557
1.252;0.09185
1.254;0.03658
1.256;0.06436
1.258;0.02919
1.26;0.08233
1.262;0.06859
1.264;0.04502
1.266;0.05071
1.268;0.05554
1.27;0.03454
1.272;0.06783
1.274;0.0012
1.276;0.03038
1.278;0.04542
1.28;0.03659
1.282;0.02434
1.284;0.06115
1.286;0.04803
1.288;0.04049
1.29;0.0615
1.292;0.01982
1.294;0.0398
1.296;0.08205
1.298;0.05542
1.3;0.03461
1.302;0.05367
1.304;0.01815
1.306;0.04265
1.308;0.04615
1.31;0.05733
1.312;0.0451
1.314;0.02885
1.316;0.05992
1.318;0.05856
1.32;0.0418
1.322;0.03102
1.324;0.03798
1.326;0.05926
1.328;0.08172
1.33;0.03604
1.332;0.04961
1.334;0.07997
1.336;0.05538
1.338;0.01614
1.34;0.01502
1.342;0.02778
1.344;0.04833
1.346;0.08532
1.348;0.04467
1.35;0.03239
1.352;0.03342
1.354;0.05731
1.356;0.0717
1.358;0.064
1.36;0.07702
1.362;0.04438
1.364;0.07361
1.366;0.06481
1.368;0.07294
1.37;0.05667
1.372;0.05901
1.374;0.05878
1.376;0.08925
1.378;0.08741
1.38;0.06903
1.382;0.07862
1.384;0.07185
1.386;0.08231
1.388;0.11683
1.39;0.12878
1.392;0.07425
1.394;0.12531
1.396;0.11819
1.398;0.13863
1.4;0.12735
1.402;0.13257
1.404;0.13388
1.406;0.13011
1.408;0.14848
1.41;0.13191
1.412;0.13059
1.414;0.12941
1.416;0.15086
1.418;0.13209
1.42;0.09519
1.422;0.13469
1.424;0.12663
1.426;0.09426
1.428;0.11896
1.43;0.09589
1.432;0.12058
1.434;0.08007
1.436;0.10541
1.438;0.12928
1.44;0.07013
1.442;0.08557
1.444;0.0637
1.446;0.12802
1.448;0.07427
1.45;0.07251
1.452;0.09431
1.454;0.11522
1.456;0.04559
1.458;0.07848
1.46;0.0412
1.462;0.06909
1.464;0.07846
1.466;0.08019
1.468;0.04679
1.47;0.04853
1.472;0.02258
1.474;0.05494
1.476;0.04129
1.478;0.01977
1.48;0.03567
1.482;0.06994
1.484;0.07131
1.486;0.07968
1.488;0.0377
1.49;0.04956
1.492;0.04621
1.494;0.04543
1.496;0.02026
1.498;0.06323
1.5;0.04318
1.502;0.04353
1.504;0.07943
1.506;0.05581
1.508;0.06583
1.51;0.03591
1.512;0.04478
1.514;0.03267
1.516;0.02173
1.518;0.03621
1.52;0.04
1.522;0.04911
1.524;0.02269
1.526;0.0753
1.528;0.05198
1.53;0.03562
1.532;0.05076
1.534;0.04785
1.536;0.05364
1.538;0.00431
1.54;0.04197
1.542;0.06804
1.544;0.05258
1.546;0.04125
1.548;0.01731
1.55;0.00817
1.552;0.00637
1.554;0.00386
1.556;-0.02267
1.558;-0.02797
1.56;-0.0203
1.562;0.00483
1.564;0.06923
1.566;0.11141
1.568;0.16929
1.57;0.26283
1.572;0.35663
1.574;0.44071
1.576;0.56878
1.578;0.62554
1.58;0.746
1.582;0.82325
1.584;0.90276
1.586;0.99368
1.588;1.01465
1.59;1.04374
1.592;1.04392
1.594;0.99005
1.596;0.96938
1.598;0.88462
1.6;0.80341
1.602;0.68915
1.604;0.60964
1.606;0.46128
1.608;0.33544
1.61;0.26241
1.612;0.15781
1.614;0.08722
1.616;0.01196
1.618;-0.07853
1.62;-0.11098
1.622;-0.12704
1.624;-0.16615
1.626;-0.17017
1.628;-0.16313
1.63;-0.12655
1.632;-0.10479
1.634;-0.08782
1.636;-0.07525
1.638;-0.03402
1.64;-0.00498
1.642;-0.02035
1.644;-0.03625
1.646;0.02894
1.648;0.01
1.65;0.02499
1.652;0.02567
1.654;0.06339
1.656;0.01798
1.658;0.0546
1.66;0.04875
1.662;0.04474
1.664;0.04467
1.666;0.05164
1.668;0.07226
1.67;0.0183
1.672;0.03972
1.674;0.0284
1.676;0.04395
1.678;0.05923
1.68;0.05613
1.682;0.02518
1.684;0.03534
1.686;0.04726
1.688;0.08101
1.69;0.04726
1.692;0.06661
1.694;0.01774
1.696;0.0463
1.698;0.03314
1.7;0.07243
1.702;0.04056
1.704;0.06204
1.706;0.04548
1.708;0.10018
1.71;0.03002
1.712;0.06145
1.714;0.05
1.716;0.06889
1.718;0.0709
1.72;0.06068
1.722;0.07595
1.724;0.04806
1.726;0.05644
1.728;0.06064
1.73;0.06964
1.732;0.08281
1.734;0.0667
1.736;0.07445
1.738;0.06188
1.74;0.09229
1.742;0.08839
1.744;0.06245
1.746;0.07532
1.748;0.11149
1.75;0.08538
1.752;0.08704
1.754;0.08831
1.756;0.10395
1.758;0.11838
1.76;0.14231
1.762;0.10852
1.764;0.10652
1.766;0.12906
1.768;0.13889
1.77;0.16482
1.772;0.14156
1.774;0.12137
1.776;0.16402
1.778;0.15576
1.78;0.13144
1.782;0.14482
1.784;0.17248
1.786;0.19155
1.788;0.19493
1.79;0.21204
1.792;0.21982
1.794;0.20421
1.796;0.20657
1.798;0.20427
1.8;0.23544
1.802;0.23021
1.804;0.22341
1.806;0.2626
1.808;0.25734
1.81;0.28275
1.812;0.25017
1.814;0.27454
1.816;0.27242
1.818;0.25137
1.82;0.28339
1.822;0.30523
1.824;0.28246
1.826;0.29381
1.828;0.25518
1.83;0.32706
1.832;0.29449
1.834;0.31708
1.836;0.29457
1.838;0.27927
1.84;0.3045
1.842;0.28816
1.844;0.2976
1.846;0.28092
1.848;0.28232
1.85;0.28074
1.852;0.28507
1.854;0.28382
1.856;0.26398
1.858;0.28864
1.86;0.28125
1.862;0.27355
1.864;0.26511
1.866;0.25813
1.868;0.26932
1.87;0.24657
1.872;0.25375
1.874;0.26462
1.876;0.23093
1.878;0.21211
1.88;0.21205
1.882;0.21404
1.884;0.20868
1.886;0.19125
1.888;0.20524
1.89;0.19571
1.892;0.17384
1.894;0.19481
1.896;0.14275
1.898;0.16284
1.9;0.18229
1.902;0.15517
1.904;0.15852
1.906;0.17136
1.908;0.13626
1.91;0.14286
1.912;0.14432
1.914;0.13643
1.916;0.11759
1.918;0.09624
1.92;0.11658
1.922;0.09818
1.924;0.1005
1.926;0.14679
1.928;0.0791
1.93;0.12274
1.932;0.1111
1.934;0.06733
1.936;0.05067
1.938;0.09961
1.94;0.08704
1.942;0.07134
1.944;0.06128
1.946;0.04554
1.948;0.08335
1.95;0.06581
1.952;0.02936
1.954;0.06606
1.956;0.05402
1.958;0.06227
1.96;0.04479
1.962;0.04903
1.964;0.0772
1.966;0.03366
1.968;0.07196
1.97;0.0289
1.972;0.05841
1.974;0.06315
1.976;0.10567
1.978;0.03798
1.98;0.03354
1.982;0.04475
1.984;0.07224
1.986;0.03174
1.988;0.04048
1.99;0.04239
1.992;-0.00064
1.994;0.03131
1.996;0.01576
1.998;0.10231
2.0;0.07453
2.002;0.04398
2.004;0.04122
2.006;0.03027
2.008;0.05291
2.01;0.03349
2.012;0.06355
2.014;0.03893
2.016;0.01962
2.018;0.0309
2.02;0.03472
2.022;0.00607
2.024;0.02667
2.026;0.07304
2.028;0.04521
2.03;0.03586
2.032;0.05682
2.034;0.04388
2.036;0.06465
2.038;0.05661
2.04;0.03133
2.042;0.05276
2.044;0.02526
2.046;0.04765
2.048;0.01711
2.05;0.03544
2.052;0.06362
2.054;0.04276
2.056;0.05728
2.058;0.02604
2.06;0.02779
2.062;0.00945
2.064;0.01905
2.066;0.07964
2.068;0.06366
2.07;0.01842
2.072;0.05466
2.074;0.04684
2.076;0.04276
2.078;0.02541
2.08;0.05025
2.082;0.04142
2.084;0.0429
2.086;0.01779
2.088;0.0359
2.09;0.01152
2.092;0.04335
2.094;0.05204
2.096;0.0455
2.098;0.0232
2.1;0.02318
2.102;0.04806
2.104;0.02309
2.106;0.03246
2.108;0.0031
2.11;0.03814
2.112;0.03708
2.114;0.01394
2.116;0.07076
2.118;0.03448
2.12;0.06341
2.122;0.0428
2.124;0.05585
2.126;0.02781
2.128;0.0168
2.13;0.09582
2.132;-9e-05
2.134;0.029
2.136;0.02678
2.138;0.02955
2.14;0.02957
2.142;0.05984
2.144;0.01652
2.146;0.06732
2.148;0.02698
2.15;0.05696
2.152;0.02591
2.154;0.02254
2.156;0.02074
2.158;0.05144
2.16;0.04007
2.162;0.0494
2.164;0.04279
2.166;0.04714
2.168;0.01746
2.17;0.04169
2.172;0.02485
2.174;0.01564
2.176;0.02765
2.178;0.04294
2.18;0.03685
2.182;0.03866
2.184;0.02856
2.186;0.01753
2.188;0.00833
2.19;0.05018
2.192;0.03632
2.194;-0.00039
2.196;0.05343
2.198;0.0119
2.2;0.06625
2.202;0.01351
2.204;0.04203
2.206;0.03132
2.208;0.04518
2.21;0.04401
2.212;0.03352
2.214;0.0179
2.216;0.00258
2.218;0.02872
2.22;0.03621
2.222;0.0517
2.224;-0.00067
2.226;0.02097
2.228;0.05902
2.23;0.0176
2.232;0.05
2.234;0.04183
2.236;0.04708
2.238;0.02854
2.24;0.04523
2.242;0.04423
2.244;0.07224
2.246;0.0773
2.248;0.04397
2.25;0.0689
2.252;0.04631
2.254;0.06776
2.256;0.05849
2.258;0.08017
2.26;0.0729
2.262;0.09201
2.264;0.09552
2.266;0.09025
2.268;0.11755
2.27;0.08681
2.272;0.10862
2.274;0.11021
2.276;0.0695
2.278;0.11376
2.28;0.09911
2.282;0.11731
2.284;0.09454
2.286;0.11117
2.288;0.09264
2.29;0.09458
2.292;0.08795
2.294;0.10042
2.296;0.11459
2.298;0.10971
2.3;0.07797
2.302;0.10112
2.304;0.12517
2.306;0.08253
2.308;0.10484
2.31;0.06547
2.312;0.10845
2.314;0.06165
2.316;0.09994
2.318;0.05554
2.32;0.01892
2.322;0.06613
2.324;0.04492
2.326;0.04301
2.328;0.02527
2.33;0.04678
2.332;0.03614
2.334;0.01497
2.336;0.04195
2.338;0.02588
2.34;0.04208
2.342;0.03202
2.344;0.03334
2.346;0.01191
2.348;0.02485
2.35;0.04117
2.352;-0.00177
2.354;-0.00512
2.356;0.01177
2.358;0.00517
2.36;-0.00614
2.362;0.01961
2.364;0.04515
2.366;0.03801
2.368;0.02032
2.37;0.01212
2.372;0.01738
2.374;0.00482
2.376;0.03747
2.378;0.01917
2.38;0.01344
2.382;0.02089
2.384;0.01249
2.386;0.05157
2.388;0.03463
2.39;0.0304
2.392;0.01731
2.394;0.00672
2.396;0.04585
2.398;0.03177
2.4;0.00247
2.402;-0.0187
2.404;0.03316
2.406;0.025
2.408;0.01002
2.41;0.01558
2.412;0.00993
2.414;0.04091
2.416;0.02195
2.418;-0.00315
2.42;-0.01943
2.422;-0.01862
2.424;-0.0178
2.426;-0.00446
2.428;0.00331
2.43;-0.0575
2.432;-0.01422
2.434;-0.03801
2.436;-0.03556
2.438;0.00822
2.44;0.10277
2.442;0.14018
2.444;0.23809
2.446;0.30819
2.448;0.40936
2.45;0.55398
2.452;0.62284
2.454;0.7704
2.456;0.78987
2.458;0.86915
2.46;0.94735
2.462;1.03843
2.464;1.01007
2.466;1.03151
2.468;0.97949
2.47;0.92408
2.472;0.85288
2.474;0.78382
2.476;0.67841
2.478;0.56311
2.48;0.4285
2.482;0.3203
2.484;0.21765
2.486;0.12875
2.488;0.02906
2.49;-0.03393
2.492;-0.0784
2.494;-0.11619
2.496;-0.13203
2.498;-0.18072
2.5;-0.1543
2.502;-0.20673
2.504;-0.17351
2.506;-0.11207
2.508;-0.10553
2.51;-0.1172
2.512;-0.06463
2.514;-0.00096
2.516;-0.03517
2.518;-0.00092
2.52;0.0004
2.522;0.00038
2.524;0.01528
2.526;-0.01302
2.528;0.00477
2.53;0.02118
2.532;0.02323
2.534;0.04752
2.536;0.02051
2.538;0.01785
2.54;-0.01499
2.542;-0.01858
2.544;0.04977
2.546;0.01477
2.548;0.04486
2.55;0.00743
2.552;-0.04059
2.554;-0.02763
2.556;0.03777
2.558;0.03064
2.56;0.00167
2.562;0.01258
2.564;0.02525
2.566;0.03422
2.568;0.00617
2.57;0.00934
2.572;0.02752
2.574;0.03541
2.576;0.02385
2.578;0.01647
2.58;0.00553
2.582;0.00709
2.584;0.01283
2.586;0.02579
2.588;0.01224
2.59;0.02239
2.592;0.04186
2.594;0.01366
2.596;0.00822
2.598;0.01841
2.6;0.0481
2.602;-0.01812
2.604;0.0284
2.606;0.05086
2.608;0.04902
2.61;0.05206
2.612;0.02286
2.614;0.07011
2.616;0.03677
2.618;0.06623
2.62;0.08026
2.622;0.06774
2.624;0.05686
2.626;0.04147
2.628;0.07688
2.63;0.1108
2.632;0.07572
2.634;0.07848
2.636;0.07293
2.638;0.08745
2.64;0.08513
2.642;0.04319
2.644;0.07947
2.646;0.13688
2.648;0.10417
2.65;0.09231
2.652;0.14298
2.654;0.15553
2.656;0.14585
2.658;0.16003
2.66;0.16615
2.662;0.13612
2.664;0.16382
2.666;0.16387
2.668;0.16052
2.67;0.16087
2.672;0.17043
2.674;0.1963
2.676;0.21801
2.678;0.1702
2.68;0.19434
2.682;0.223
2.684;0.21537
2.686;0.23706
2.688;0.22513
2.69;0.23761
2.692;0.22383
2.694;0.21379
2.696;0.24688
2.698;0.26179
2.7;0.24828
2.702;0.24013
2.704;0.25079
2.706;0.23443
2.708;0.25038
2.71;0.27144
2.712;0.248
2.714;0.24493
2.716;0.26579
2.718;0.27939
2.72;0.25313
2.722;0.26754
2.724;0.269
2.726;0.22049
2.728;0.24808
2.73;0.21868
2.732;0.21976
2.734;0.24288
2.736;0.2197
2.738;0.22642
2.74;0.22816
2.742;0.21422
2.744;0.23873
2.746;0.20263
2.748;0.20675
2.75;0.18848
2.752;0.20617
2.754;0.16581
2.756;0.19928
2.758;0.18717
2.76;0.15711
2.762;0.13731
2.764;0.17111
2.766;0.15651
2.768;0.13681
2.77;0.13863
2.772;0.16829
2.774;0.12348
2.776;0.12639
2.778;0.08846
2.78;0.13305
2.782;0.13292
2.784;0.08825
2.786;0.08828
2.788;0.05538
2.79;0.11089
2.792;0.09383
2.794;0.04227
2.796;0.07573
2.798;0.03295
2.8;0.05777
2.802;0.05294
2.804;0.04264
2.806;0.06539
2.808;0.03438
2.81;0.04495
2.812;0.043
2.814;0.03426
2.816;0.03149
2.818;0.0231
2.82;0.02616
2.822;0.03938
2.824;0.05399
2.826;0.04236
2.828;0.03056
2.83;0.0357
2.832;0.04056
2.834;0.01995
2.836;0.0306
2.838;0.00197
2.84;0.01093
2.842;-0.01401
2.844;-0.00743
2.846;-0.0224
2.848;0.01781
2.85;-0.00468
2.852;-0.00649
2.854;-0.00662
2.856;-0.00634
2.858;-0.02258
2.86;0.00256
2.862;-0.0266
2.864;0.01341
2.866;-0.01279
2.868;0.00867
2.87;0.00899
2.872;0.00089
2.874;-0.0083
2.876;-0.00481
2.878;-0.00744
2.88;-0.0287
2.882;0.01317
2.884;-0.02165
2.886;0.02403
2.888;-0.02598
2.89;0.0025
2.892;0.00877
2.894;0.0044
2.896;0.01561
2.898;-0.01168
2.9;0.02
2.902;-0.00302
2.904;-0.00382
2.906;0.02145
2.908;-0.02419
2.91;0.01595
2.912;-0.00808
2.914;-0.01353
2.916;0.00624
2.918;-0.03725
2.92;-0.01898
2.922;-0.04278
2.924;-0.00781
2.926;-0.00181
2.928;-0.01559
2.93;-0.01311
2.932;-0.04402
2.934;-0.0235
2.936;0.01749
2.938;-0.00848
2.94;-0.01508
2.942;-0.01994
2.944;-0.0351
2.946;-0.00906
2.948;-0.02313
2.95;-0.02991
2.952;-0.02666
2.954;-0.00725
2.956;-0.02202
2.958;0.03246
2.96;-0.02115
2.962;-0.003
2.964;-0.02698
2.966;0.01403
2.968;-0.0173
2.97;-0.03989
2.972;-0.03107
2.974;-0.00427
2.976;-0.01024
2.978;-0.01873
2.98;-0.00717
2.982;-0.01122
2.984;-0.01796
2.986;-0.0165
2.988;-0.02011
2.99;-0.01559
2.992;-0.00722
2.994;-0.01244
2.996;-0.0082
2.998;-0.04504
3.0;0.00693
3.002;0.00226
3.004;-0.00837
3.006;-0.04381
3.008;-0.01413
3.01;0.02005
3.012;-0.0285
3.014;-0.02403
3.016;-0.0421
3.018;-0.01538
3.02;-0.00354
3.022;-0.01261
3.024;0.01377
3.026;-0.01432
3.028;-0.02971
3.03;-0.00642
3.032;0.00153
3.034;-0.02358
3.036;-0.0075
3.038;-0.00801
3.04;-0.02382
3.042;0.00288
3.044;0.01871
3.046;-0.01131
3.048;-0.02413
3.05;0.00219
3.052;-0.01942
3.054;0.00102
3.056;-0.03083
3.058;-0.01095
3.06;-0.01345
3.062;-0.02056
3.064;0.00092
3.066;0.01157
3.068;0.00592
3.07;-0.03022
3.072;-0.01313
3.074;-0.0357
3.076;-0.00232
3.078;0.01763
3.08;-0.01564
3.082;-0.01681
3.084;0.01343
3.086;-0.01173
3.088;-0.02976
3.09;-0.00803
3.092;0.00968
3.094;-0.01061
3.096;-0.02557
3.098;-0.00662
3.1;-0.01013
3.102;0.02514
3.104;0.00182
3.106;-0.02704
3.108;-0.02817
3.11;-0.02299
3.112;0.0106
3.114;0.03903
3.116;-0.01113
3.118;0.02053
3.12;0.03735
3.122;0.032
3.124;0.01693
3.126;0.04884
3.128;0.0121
3.13;0.05832
3.132;0.02737
3.134;0.02397
3.136;0.05454
3.138;0.04514
3.14;0.0285
3.142;0.0453
3.144;0.02112
3.146;0.06985
3.148;0.0865
3.15;0.07788
3.152;0.04617
3.154;0.07943
3.156;0.06567
3.158;0.03527
3.16;0.06065
3.162;0.03934
3.164;0.04827
3.166;0.04069
3.168;0.05762
3.17;0.04897
3.172;0.02052
3.174;0.01684
3.176;0.02921
3.178;0.0543
3.18;-0.00216
3.182;0.03185
3.184;0.01818
3.186;0.00506
3.188;0.0269
3.19;-0.006
3.192;0.01071
3.194;0.01492
3.196;0.00685
3.198;-0.00049
3.2;0.00258
3.202;-0.02009
3.204;-0.03552
3.206;-0.03922
3.208;-0.00035
3.21;-0.0412
3.212;-0.00879
3.214;-0.00427
3.216;-0.04392
3.218;-0.02538
3.22;-0.01209
3.222;-0.00353
3.224;-0.01051
3.226;0.01185
3.228;-0.04401
3.23;-0.00411
3.232;-0.04163
3.234;-0.03379
3.236;-0.02658
3.238;-0.049
3.24;-0.01297
3.242;0.00181
3.244;-0.01425
3.246;0.00013
3.248;-0.01473
3.25;-0.00122
3.252;-0.01747
3.254;-0.03101
3.256;-0.04134
3.258;-0.05051
3.26;-0.03025
3.262;-0.04692
3.264;-0.04713
3.266;-0.02452
3.268;-0.01764
3.27;-0.01737
3.272;-0.05302
3.274;-0.02733
3.276;0.03557
3.278;-0.03847
3.28;-0.04157
3.282;-0.07114
3.284;-0.00168
3.286;-0.02563
3.288;-0.06674
3.29;-0.04414
3.292;-0.06044
3.294;-0.05197
3.296;-0.10252
3.298;-0.10122
3.3;-0.09321
3.302;-0.06054
3.304;-0.04966
3.306;-0.02687
3.308;0.02661
3.31;0.17565
3.312;0.20121
3.314;0.33873
3.316;0.38118
3.318;0.52665
3.32;0.58206
3.322;0.70582
3.324;0.8128
3.326;0.85455
3.328;0.89705
3.33;0.97921
3.332;0.9411
3.334;0.96193
3.336;0.90201
3.338;0.84359
3.34;0.77673
3.342;0.6969
3.344;0.57136
3.346;0.46494
3.348;0.33587
3.35;0.26593
3.352;0.15715
3.354;0.03571
3.356;-0.03763
3.358;-0.11066
3.36;-0.15199
3.362;-0.19993
3.364;-0.21758
3.366;-0.20523
3.368;-0.21632
3.37;-0.24027
3.372;-0.22156
3.374;-0.15698
3.376;-0.15408
3.378;-0.13291
3.38;-0.09687
3.382;-0.09496
3.384;-0.08546
3.386;-0.05825
3.388;-0.07842
3.39;-0.03345
3.392;-0.05012
3.394;-0.03365
3.396;-0.03681
3.398;-0.02233
3.4;-0.05525
3.402;-0.05446
3.404;-0.04371
3.406;-0.02162
3.408;-0.04583
3.41;-0.01358
3.412;-0.04695
3.414;-0.02801
3.416;-0.06915
3.418;-0.02221
3.42;-0.03989
3.422;-0.02898
3.424;-0.05217
3.426;-0.03976
3.428;-0.01762
3.43;-0.04902
3.432;-0.05456
3.434;-0.01632
3.436;-0.06076
3.438;-0.05734
3.44;-0.0329
3.442;-0.03322
3.444;-0.01995
3.446;-0.06028
3.448;0.00488
3.45;-0.01732
3.452;-0.04038
3.454;-0.01971
3.456;-0.01881
3.458;-0.0268
3.46;-0.00338
3.462;-0.03529
3.464;-0.03855
3.466;-0.03957
3.468;-0.03363
3.47;-0.00505
3.472;-0.0074
3.474;0.01783
3.476;-0.00122
3.478;0.01325
3.48;-0.00642
3.482;-0.01618
3.484;0.00279
3.486;0.01407
3.488;0.01326
3.49;0.0209
3.492;0.01781
3.494;0.00326
3.496;0.01062
3.498;0.01891
3.5;0.01054
3.502;0.01837
3.504;0.04607
3.506;0.03623
3.508;0.05447
3.51;0.05738
3.512;0.0719
3.514;0.06051
3.516;0.0453
3.518;0.08089
3.52;0.06566
3.522;0.09063
3.524;0.09952
3.526;0.10166
3.528;0.12117
3.53;0.10581
3.532;0.14014
3.534;0.11507
3.536;0.11601
3.538;0.12518
3.54;0.16339
3.542;0.14812
3.544;0.14113
3.546;0.17144
3.548;0.14069
3.55;0.16385
3.552;0.16181
3.554;0.16997
3.556;0.15201
3.558;0.16941
3.56;0.2241
3.562;0.18324
3.564;0.18549
3.566;0.20759
3.568;0.20345
3.57;0.21058
3.572;0.17249
3.574;0.20678
3.576;0.21619
3.578;0.19988
3.58;0.18543
3.582;0.20699
3.584;0.1956
3.586;0.22618
3.588;0.21175
3.59;0.19455
3.592;0.2298
3.594;0.22612
3.596;0.20653
3.598;0.20429
3.6;0.25063
3.602;0.18813
3.604;0.18438
3.606;0.1919
3.608;0.19903
3.61;0.17599
3.612;0.16574
3.614;0.17935
3.616;0.15638
3.618;0.13517
3.62;0.11785
3.622;0.13297
3.624;0.11262
3.626;0.09428
3.628;0.13296
3.63;0.11354
3.632;0.12952
3.634;0.10794
3.636;0.11463
3.638;0.09825
3.64;0.09289
3.642;0.07945
3.644;0.05027
3.646;0.05565
3.648;0.02937
3.65;0.03495
3.652;0.03905
3.654;0.06506
3.656;0.05467
3.658;0.04827
3.66;0.03348
3.662;0.0334
3.664;0.02277
3.666;0.02494
3.668;0.03438
3.67;0.00182
3.672;0.01856
3.674;0.01812
3.676;0.01283
3.678;0.01267
3.68;-0.01621
3.682;-0.0064
3.684;0.00501
3.686;-0.01434
3.688;0.00786
3.69;0.00972
3.692;-0.00281
3.694;-0.00061
3.696;-0.04556
3.698;-0.0107
3.7;-0.01067
3.702;-0.0209
3.704;-0.06669
3.706;-0.02304
3.708;-0.02952
3.71;-0.01284
3.712;-0.00992
3.714;-0.02065
3.716;-0.08045
3.718;-0.02292
3.72;-0.04898
3.722;-0.05207
3.724;-0.03475
3.726;-0.00138
3.728;-0.04037
3.73;-0.0462
3.732;-0.04265
3.734;-0.05285
3.736;-0.04402
3.738;-0.02539
3.74;-0.00674
3.742;-0.03042
3.744;-0.04491
3.746;-0.03814
3.748;-0.04985
3.75;-0.06154
3.752;-0.04485
3.754;-0.04746
3.756;-0.04814
3.758;-0.06363
3.76;-0.02217
3.762;-0.033
3.764;-0.06851
3.766;-0.03033
3.768;-0.03045
3.77;-0.05135
3.772;-0.02402
3.774;-0.01296
3.776;-0.03436
3.778;-0.06625
3.78;-0.0235
3.782;-0.04739
3.784;-0.05499
3.786;-0.05474
3.788;-0.02334
3.79;-0.04511
3.792;-0.07021
3.794;-0.04551
3.796;-0.01008
3.798;-0.06927
3.8;-0.0312
3.802;-0.01985
3.804;-0.03419
3.806;-0.01716
3.808;-0.03471
3.81;-0.0378
3.812;-0.0616
3.814;-0.04735
3.816;-0.08002
3.818;-0.05146
3.82;-0.01938
3.822;-0.06778
3.824;-0.00592
3.826;-0.03928
3.828;-0.04085
3.83;-0.03273
3.832;-0.04107
3.834;-0.03508
3.836;-0.05939
3.838;-0.02622
3.84;-0.0336
3.842;-0.04003
3.844;-0.02808
3.846;-0.056
3.848;-0.01525
3.85;-0.04454
3.852;-0.0717
3.854;-0.0289
3.856;-0.06554
3.858;-0.06766
3.86;-0.0195
3.862;-0.05036
3.864;-0.0493
3.866;-0.04462
3.868;-0.05614
3.87;-0.08271
3.872;-0.04163
3.874;-0.04994
3.876;-0.04024
3.878;-0.08519
3.88;-0.03417
3.882;-0.01384
3.884;-0.02954
3.886;-0.05994
3.888;-0.05472
3.89;-0.05145
3.892;-0.05039
3.894;-0.04579
3.896;-0.07801
3.898;-0.03246
3.9;-0.04584
3.902;-0.02571
3.904;-0.05501
3.906;-0.02668
3.908;-0.01966
3.91;-0.04628
3.912;-0.01771
3.914;-0.03292
3.916;-0.04991
3.918;-0.02333
3.92;-0.03443
3.922;-0.04231
3.924;-0.05435
3.926;-0.0415
3.928;-0.06506
3.93;-0.0562
3.932;-0.03932
3.934;-0.00746
3.936;-0.04764
3.938;-0.06858
3.94;-0.02091
3.942;-0.03814
3.944;-0.04872
3.946;-0.05085
3.948;-0.0353
3.95;-0.03432
3.952;-0.04886
3.954;-0.04109
3.956;-0.04971
3.958;-0.04023
3.96;-0.02377
3.962;-0.02607
3.964;-0.00218
3.966;-0.02551
3.968;0.00156
3.97;0.00454
3.972;-0.01127
3.974;0.03129
3.976;0.01002
3.978;0.01652
3.98;0.01551
3.982;0.02005
3.984;0.02349
3.986;0.02083
3.988;0.02891
3.99;0.0532
3.992;0.02303
3.994;0.0302
3.996;0.02508
3.998;-0.00881
4.0;0.01261
4.002;0.01424
4.004;0.0296
4.006;0.02505
4.008;0.03197
4.01;-0.00225
4.012;0.00858
4.014;-0.00087
4.016;-0.0265
4.018;3e-05
4.02;0.00273
4.022;-0.00251
4.024;-0.00077
4.026;-0.03813
4.028;-0.04586
4.03;-0.00846
4.032;0.01486
4.034;-0.01253
4.036;-0.02999
4.038;-0.05181
4.04;-0.05202
4.042;-0.06382
4.044;-0.04029
4.046;-0.05677
4.048;-0.05456
4.05;-0.07324
4.052;-0.03213
4.054;-0.03598
4.056;-0.05574
4.058;-0.07471
4.06;-0.07155
4.062;-0.0423
4.064;-0.07831
4.066;-0.05018
4.068;-0.04324
4.07;-0.01603
4.072;-0.04346
4.074;-0.04096
4.076;-0.0368
4.078;-0.04279
4.08;-0.09255
4.082;-0.07381
4.084;-0.0603
4.086;-0.07143
4.088;-0.0245
4.09;-0.05742
4.092;-0.02947
4.094;-0.04583
4.096;-0.02679
4.098;-0.03587
4.1;-0.02476
4.102;-0.04591
4.104;-0.07189
4.106;-0.07917
4.108;-0.06309
4.11;-0.04546
4.112;-0.03219
4.114;-0.02662
4.116;-0.05702
4.118;-0.04913
4.12;-0.05088
4.122;-0.06099
4.124;-0.04005
4.126;-0.01328
4.128;-0.05293
4.13;-0.08493
4.132;-0.07319
4.134;-0.10953
4.136;-0.0914
4.138;-0.13064
4.14;-0.14411
4.142;-0.0941
4.144;-0.07101
4.146;-0.04849
4.148;-0.00051
4.15;0.04121
4.152;0.1468
4.154;0.22337
4.156;0.32738
4.158;0.41862
4.16;0.51968
4.162;0.63461
4.164;0.6804
4.166;0.80618
4.168;0.85942
4.17;0.92148
4.172;0.92298
4.174;0.94148
4.176;0.91268
4.178;0.85776
4.18;0.78833
4.182;0.70881
4.184;0.64006
4.186;0.50754
4.188;0.41344
4.19;0.29587
4.192;0.17764
4.194;0.10134
4.196;-0.01682
4.198;-0.07529
4.2;-0.14864
4.202;-0.18404
4.204;-0.21855
4.206;-0.26471
4.208;-0.26055
4.21;-0.26841
4.212;-0.21162
4.214;-0.20639
4.216;-0.18091
4.218;-0.1649
4.22;-0.16793
4.222;-0.11785
4.224;-0.08858
4.226;-0.0909
4.228;-0.07257
4.23;-0.08877
4.232;-0.05533
4.234;-0.08413
4.236;-0.07481
4.238;-0.0433
4.24;-0.07049
4.242;-0.08182
4.244;-0.02319
4.246;-0.0525
4.248;-0.05216
4.25;-0.0606
4.252;-0.03485
4.254;-0.05735
4.256;-0.04799
4.258;-0.04329
4.26;-0.054
4.262;-0.04499
4.264;-0.03887
4.266;-0.05511
4.268;-0.05926
4.27;-0.05394
4.272;-0.06933
4.274;-0.02609
4.276;-0.08413
4.278;-0.03432
4.28;-0.02689
4.282;-0.0553
4.284;-0.0621
4.286;-0.03247
4.288;-0.06568
4.29;-0.04749
4.292;-0.03687
4.294;-0.04697
4.296;-0.03735
4.298;-0.03169
4.3;-0.03966
4.302;-0.0043
4.304;-0.06007
4.306;-0.02059
4.308;-0.02518
4.31;-0.04167
4.312;-0.0743
4.314;-0.03435
4.316;-0.01032
4.318;-0.03098
4.32;-0.01322
4.322;-0.02198
4.324;0.00451
4.326;-0.0116
4.328;-0.03176
4.33;-0.04563
4.332;0.00148
4.334;-0.00168
4.336;0.00451
4.338;-0.00557
4.34;0.01936
4.342;0.01331
4.344;0.02235
4.346;0.00343
4.348;0.02236
4.35;0.02995
4.352;-0.0056
4.354;0.05528
4.356;0.03802
4.358;0.0566
4.36;0.04431
4.362;0.02264
4.364;0.09608
4.366;0.07586
4.368;0.0687
4.37;0.08686
4.372;0.10238
4.374;0.09663
4.376;0.10665
4.378;0.13039
4.38;0.13406
4.382;0.11679
4.384;0.1298
4.386;0.13204
4.388;0.13624
4.39;0.11825
4.392;0.1677
4.394;0.16722
4.396;0.18032
4.398;0.17662
4.4;0.16188
4.402;0.18208
4.404;0.16334
4.406;0.20175
4.408;0.21139
4.41;0.19141
4.412;0.17466
4.414;0.16245
4.416;0.19967
4.418;0.15791
4.42;0.21222
4.422;0.19423
4.424;0.21267
4.426;0.19991
4.428;0.2177
4.43;0.18859
4.432;0.20287
4.434;0.19399
4.436;0.2068
4.438;0.1793
4.44;0.20063
4.442;0.165
4.444;0.19409
4.446;0.1838
4.448;0.18358
4.45;0.17311
4.452;0.1833
4.454;0.17082
4.456;0.17358
4.458;0.15074
4.46;0.1545
4.462;0.1403
4.464;0.14047
4.466;0.12248
4.468;0.10209
4.47;0.12438
4.472;0.07123
4.474;0.07529
4.476;0.0581
4.478;0.07411
4.48;0.08328
4.482;0.05802
4.484;0.06989
4.486;0.10332
4.488;0.04053
4.49;0.04636
4.492;0.04929
4.494;0.07052
4.496;0.0073
4.498;0.05159
4.5;0.02593
4.502;0.0407
4.504;0.05014
4.506;0.05584
4.508;-0.01087
4.51;0.01125
4.512;0.02765
4.514;0.00789
4.516;0.01944
4.518;0.00868
4.52;-0.02028
4.522;0.01758
4.524;-0.04082
4.526;-0.03265
4.528;-0.03442
4.53;-0.01686
4.532;-0.02774
4.534;-0.02466
4.536;-0.03059
4.538;-0.0279
4.54;-0.04471
4.542;-0.05056
4.544;-0.01057
4.546;-0.00229
4.548;-0.04047
4.55;-0.04803
4.552;-0.01469
4.554;-0.02432
4.556;-0.01515
4.558;-0.06725
4.56;-0.03878
4.562;-0.01375
4.564;-0.07193
4.566;-0.04742
4.568;-0.04477
4.57;-0.03972
4.572;-0.06737
4.574;-0.02514
4.576;-0.00529
4.578;-0.04877
4.58;-0.01754
4.582;-0.05463
4.584;-0.03511
4.586;-0.0592
4.588;-0.05346
4.59;-0.04978
4.592;-0.04212
4.594;-0.03841
4.596;-0.04405
4.598;-0.05486
4.6;-0.04378
4.602;-0.04267
4.604;-0.02614
4.606;-0.02738
4.608;-0.03766
4.61;-0.06729
4.612;-0.0601
4.614;-0.05329
4.616;-0.06329
4.618;-0.03538
4.62;-0.04886
4.622;-0.04337
4.624;-0.03187
4.626;-0.05583
4.628;-0.04592
4.63;-0.00873
4.632;-0.03111
4.634;-0.03391
4.636;-0.07021
4.638;-0.05111
4.64;-0.01458
4.642;-0.04097
4.644;-0.06038
4.646;-0.04632
4.648;-0.0485
4.65;-0.03012
4.652;-0.0327
4.654;-0.07895
4.656;-0.07722
4.658;-0.02328
4.66;-0.02328
4.662;-0.02251
4.664;-0.03086
4.666;-0.06467
4.668;-0.01986
4.67;-0.03875
4.672;-0.01493
4.674;-0.03365
4.676;-0.05252
4.678;-0.04323
4.68;-0.03574
4.682;-0.03764
4.684;-0.07991
4.686;-0.00505
4.688;-0.06564
4.69;-0.04545
4.692;-0.04783
4.694;-0.04486
4.696;-0.06858
4.698;-0.01374
4.7;-0.05527
4.702;-0.04113
4.704;-0.05815
4.706;-0.04316
4.708;-0.02258
4.71;-0.05859
4.712;-0.05162
4.714;-0.00331
4.716;-0.03382
4.718;-0.02584
4.72;-0.03746
4.722;-0.00677
4.724;-0.01089
4.726;-0.02676
4.728;-0.05489
4.73;-0.03641
4.732;-0.05646
4.734;-0.03781
4.736;-0.03711
4.738;-0.07273
4.74;-0.06381
4.742;-0.02757
4.744;-0.03892
4.746;-0.03507
4.748;-0.03496
4.75;-0.06868
4.752;-0.0687
4.754;-0.04922
4.756;-0.04421
4.758;-0.04532
4.76;-0.0362
4.762;-0.02711
4.764;-0.04427
4.766;-0.04285
4.768;-0.05173
4.77;-0.03661
4.772;-0.05256
4.774;-0.03307
4.776;-0.06061
4.778;-0.02714
4.78;-0.04524
4.782;-0.06535
4.784;-0.07934
4.786;-0.04926
4.788;-0.05124
4.79;-0.02642
4.792;-0.04681
4.794;-0.05388
4.796;-0.06112
4.798;-0.02344
4.8;-0.025
4.802;-0.04403
4.804;-0.00687
4.806;-0.00958
4.808;-0.04467
4.81;-0.02023
4.812;-0.03373
4.814;-0.03392
4.816;-0.03247
4.818;-0.02782
4.82;-0.04004
4.822;-0.02037
4.824;0.00059
4.826;0.00168
4.828;-0.03296
4.83;0.00768
4.832;0.02289
4.834;0.03789
4.836;0.03893
4.838;0.02315
4.84;0.04696
4.842;0.03044
4.844;0.0486
4.846;0.00739
4.848;0.05353
4.85;0.03294
4.852;0.04744
4.854;0.03329
4.856;0.04614
4.858;0.07746
4.86;0.03855
4.862;0.03687
4.864;0.05184
4.866;-0.00799
4.868;0.07006
4.87;0.06312
4.872;0.02692
4.874;0.04421
4.876;0.00695
4.878;0.0155
4.88;0.02066
4.882;0.00637
4.884;0.02913
4.886;0.0035
4.888;0.02332
4.89;0.00517
4.892;0.02267
4.894;-0.04742
4.896;-0.01324
4.898;0.00493
4.9;-0.01374
4.902;-0.00629
4.904;-0.01773
4.906;-0.02734
4.908;-0.04049
4.91;-0.0182
4.912;-0.0369
4.914;-0.01813
4.916;0.03549
4.918;-0.02569
4.92;-0.04005
4.922;-0.0314
4.924;-0.0218
4.926;-0.02258
4.928;-0.0133
4.93;-0.04845
4.932;-0.04024
4.934;-0.04171
4.936;-0.04704
4.938;-0.03474
4.94;-0.02696
4.942;-0.03534
4.944;-0.03105
4.946;-0.05489
4.948;-0.03826
4.95;-0.02423
4.952;-0.0293
4.954;-0.04712
4.956;-0.0642
4.958;-0.02366
4.96;-0.0293
4.962;-0.05831
4.964;-0.0389
4.966;-0.01034
4.968;-0.03356
4.97;-0.02917
4.972;-0.02821
4.974;-0.01881
4.976;-0.05663
4.978;-0.03619
4.98;-0.03346
4.982;-0.00843
4.984;-0.03883
4.986;-0.00198
4.988;-0.03668
4.99;-0.03533
4.992;-0.02045
4.994;-0.04172
4.996;-0.03638
4.998;-0.02393
5.0;-0.02999
5.002;-0.05359
5.004;-0.07953
5.006;-0.08972
5.008;-0.10148
5.01;-0.06448
5.012;-0.06874
5.014;-0.05218
5.016;-0.01287
5.018;0.02711
5.02;0.12273
5.022;0.19891
5.024;0.30767
5.026;0.36193
5.028;0.50125
5.03;0.60096
5.032;0.69591
5.034;0.74757
5.036;0.83513
5.038;0.92251
5.04;0.90807
5.042;0.95439
5.044;0.98258
5.046;0.89194
5.048;0.85121
5.05;0.80181
5.052;0.7075
5.054;0.61395
5.056;0.54286
5.058;0.38425
5.06;0.26548
5.062;0.17033
5.064;0.07349
5.066;-0.02137
5.068;-0.08514
5.07;-0.1011
5.072;-0.20683
5.074;-0.20001
5.076;-0.25601
5.078;-0.22678
5.08;-0.25828
5.082;-0.18933
5.084;-0.17379
5.086;-0.14715
5.088;-0.12964
5.09;-0.13274
5.092;-0.11234
5.094;-0.05488
5.096;-0.02985
5.098;-0.08107
5.1;-0.03702
5.102;-0.04635
5.104;-0.02126
5.106;-0.01346
5.108;-0.02977
5.11;-0.02768
5.112;0.00995
5.114;-0.02663
5.116;-0.01235
5.118;-0.02607
5.12;-0.01121
5.122;-0.04347
5.124;-0.02283
5.126;0.00577
5.128;-0.03013
5.13;-0.03587
5.132;-0.04279
5.134;-0.0049
5.136;-0.02129
5.138;-0.00457
5.14;-0.00351
5.142;-0.00477
5.144;-0.04141
5.146;-0.01549
5.148;-0.01138
5.15;0.00441
5.152;0.01136
5.154;-0.03552
5.156;-0.00312
5.158;-0.01159
5.16;-0.02377
5.162;-0.00443
5.164;-0.01321
5.166;-0.03701
5.168;0.00979
5.17;-0.04725
5.172;-0.00393
5.174;0.00224
5.176;-0.01971
5.178;0.00599
5.18;0.01906
5.182;-0.03882
5.184;0.03047
5.186;0.02424
5.188;-0.00481
5.19;-0.00468
5.192;0.02198
5.194;0.01536
5.196;-0.00188
5.198;0.01709
5.2;0.03126
5.202;0.0458
5.204;0.04274
5.206;0.05233
5.208;0.04374
5.21;0.03772
5.212;0.0907
5.214;0.08951
5.216;0.07972
5.218;0.05039
5.22;0.03497
5.222;0.08293
5.224;0.05605
5.226;0.09253
5.228;0.07597
5.23;0.07784
5.232;0.11982
5.234;0.1284
5.236;0.1125
5.238;0.09642
5.24;0.1331
5.242;0.15971
5.244;0.13255
5.246;0.16101
5.248;0.1239
5.25;0.15219
5.252;0.16258
5.254;0.16304
5.256;0.20759
5.258;0.21073
5.26;0.22835
5.262;0.20378
5.264;0.1939
5.266;0.20513
5.268;0.21737
5.27;0.21334
5.272;0.23382
5.274;0.23209
5.276;0.21531
5.278;0.20423
5.28;0.21676
5.282;0.22181
5.284;0.24446
5.286;0.23732
5.288;0.23182
5.29;0.23687
5.292;0.22685
5.294;0.21666
5.296;0.25966
5.298;0.21885
5.3;0.2746
5.302;0.23566
5.304;0.25651
5.306;0.2314
5.308;0.26601
5.31;0.23501
5.312;0.24713
5.314;0.24258
5.316;0.20294
5.318;0.21677
5.32;0.20526
5.322;0.20369
5.324;0.18963
5.326;0.15253
5.328;0.19085
5.33;0.15712
5.332;0.19066
5.334;0.17226
5.336;0.15882
5.338;0.1765
5.34;0.1795
5.342;0.13778
5.344;0.11493
5.346;0.11305
5.348;0.09675
5.35;0.11537
5.352;0.10428
5.354;0.06956
5.356;0.12986
5.358;0.09097
5.36;0.10963
5.362;0.1104
5.364;0.09756
5.366;0.06679
5.368;0.06553
5.37;0.05157
5.372;0.05922
5.374;0.04002
5.376;0.05166
5.378;0.05548
5.38;0.07021
5.382;0.04026
5.384;0.03463
5.386;0.06282
5.388;0.02302
5.39;0.01849
5.392;0.01645
5.394;0.01601
5.396;0.03012
5.398;-0.01016
5.4;0.02212
5.402;0.03556
5.404;-0.00041
5.406;0.01498
5.408;0.01317
5.41;-0.00425
5.412;-0.0117
5.414;-0.0254
5.416;0.01119
5.418;0.00855
5.42;0.01344
5.422;-0.03214
5.424;0.0042
5.426;0.01732
5.428;0.02721
5.43;-0.0095
5.432;0.00759
5.434;-0.00724
5.436;-0.01316
5.438;0.00454
5.44;0.00329
5.442;-0.00262
5.444;-0.023
5.446;0.00942
5.448;0.01984
5.45;0.02264
5.452;-0.01409
5.454;-0.01602
5.456;0.01175
5.458;0.00066
5.46;0.01719
5.462;-0.02965
5.464;0.01538
5.466;-0.0021
5.468;-0.01122
5.47;-0.0122
5.472;0.02533
5.474;-0.036
5.476;0.00033
5.478;-0.01227
5.48;0.01199
5.482;0.01306
5.484;0.00443
5.486;-0.0007
5.488;0.00554
5.49;-0.0108
5.492;0.01214
5.494;-0.01677
5.496;-0.02677
5.498;-0.00916
5.5;0.01281
5.502;0.02308
5.504;-0.01219
5.506;-0.02154
5.508;-0.00678
5.51;-0.01445
5.512;0.00465
5.514;0.02027
5.516;0.00129
5.518;0.01409
5.52;0.03042
5.522;-0.00643
5.524;0.02168
5.526;0.00717
5.528;-0.00484
5.53;-0.0142
5.532;0.00615
5.534;-0.01801
5.536;0.00208
5.538;-0.02395
5.54;0.02045
5.542;0.02347
5.544;0.00265
5.546;-0.0291
5.548;-0.01461
5.55;-0.02122
5.552;0.00714
5.554;0.01471
5.556;-0.00022
5.558;-0.01927
5.56;0.02133
5.562;-0.02954
5.564;-0.01549
5.566;-0.01059
5.568;0.015
5.57;-0.01541
5.572;-0.00753
5.574;-0.00948
5.576;0.02585
5.578;-0.02001
5.58;-0.0022
5.582;0.02921
5.584;-0.02224
5.586;-0.02679
5.588;0.01226
5.59;-0.01062
5.592;0.00158
5.594;0.03167
5.596;0.0057
5.598;-0.01511
5.6;0.02145
5.602;-0.01381
5.604;0.02656
5.606;-0.011
5.608;-0.01505
5.61;0.01849
5.612;0.01724
5.614;-0.00506
5.616;0.00032
5.618;-0.00928
5.62;0.00619
5.622;-0.0237
5.624;-0.0028
5.626;-0.02383
5.628;-0.01802
5.63;0.00354
5.632;-0.00205
5.634;0.03928
5.636;0.00307
5.638;0.006
5.64;0.03566
5.642;-0.01398
5.644;-0.01474
5.646;0.00708
5.648;0.02383
5.65;0.00622
5.652;-0.00703
5.654;0.02184
5.656;0.03446
5.658;0.05349
5.66;0.01684
5.662;0.02549
5.664;0.02944
5.666;0.05335
5.668;0.03498
5.67;0.05122
5.672;0.06552
5.674;0.06431
5.676;0.04815
5.678;0.0739
5.68;0.07644
5.682;0.01692
5.684;0.02177
5.686;0.09645
5.688;0.07041
5.69;0.07887
5.692;0.09989
5.694;0.07313
5.696;0.0992
5.698;0.09759
5.7;0.09453
5.702;0.07602
5.704;0.0894
5.706;0.04187
5.708;0.07641
5.71;0.09522
5.712;0.05322
5.714;0.03897
5.716;0.06991
5.718;0.07243
5.72;0.05252
5.722;0.06863
5.724;0.04536
5.726;0.04193
5.728;0.07766
5.73;0.03176
5.732;0.04263
5.734;0.05654
5.736;0.01773
5.738;0.03815
5.74;0.03052
5.742;0.03033
5.744;0.02317
5.746;0.03932
5.748;0.03251
5.75;0.01517
5.752;0.02934
5.754;-0.00227
5.756;-0.01137
5.758;0.0159
5.76;-0.00258
5.762;0.02771
5.764;0.00026
5.766;0.00998
5.768;0.01127
5.77;0.03042
5.772;0.02706
5.774;0.04558
5.776;0.01054
5.778;-0.01125
5.78;0.0002
5.782;0.01873
5.784;0.01604
5.786;-0.01682
5.788;0.04167
5.79;0.02794
5.792;0.02612
5.794;-0.00505
5.796;-0.02053
5.798;0.00601
5.8;0.03016
5.802;-0.00168
5.804;0.02055
5.806;0.00399
5.808;-0.00197
5.81;0.01546
5.812;0.01733
5.814;0.04272
5.816;0.01139
5.818;0.01761
5.82;0.03294
5.822;0.01422
5.824;0.01885
5.826;0.00066
5.828;-0.00194
5.83;0.0052
5.832;0.00366
5.834;-0.03482
5.836;0.02174
5.838;-0.03617
5.84;-0.02819
5.842;-0.04811
5.844;-0.05626
5.846;-0.06526
5.848;-0.02814
5.85;-0.01462
5.852;0.01455
5.854;0.08557
5.856;0.13973
5.858;0.26894
5.86;0.36192
5.862;0.4606
5.864;0.60939
5.866;0.62792
5.868;0.71898
5.87;0.8238
5.872;0.87636
5.874;0.91382
5.876;0.95779
5.878;0.98779
5.88;0.9604
5.882;0.96031
5.884;0.9382
5.886;0.82174
5.888;0.70927
5.89;0.63086
5.892;0.48493
5.894;0.4081
5.896;0.28986
5.898;0.18723
5.9;0.07275
5.902;0.03336
5.904;-0.03348
5.906;-0.13249
5.908;-0.16902
5.91;-0.17807
5.912;-0.1751
5.914;-0.1788
5.916;-0.16379
5.918;-0.13981
5.92;-0.12897
5.922;-0.13699
5.924;-0.07599
5.926;-0.06446
5.928;-0.02403
5.93;-0.03297
5.932;-0.02614
5.934;-0.00745
5.936;-0.00141
5.938;0.00885
5.94;0.00728
5.942;0.0246
5.944;0.01892
5.946;0.02809
5.948;0.02622
5.95;0.01259
5.952;0.00519
5.954;0.04365
5.956;0.06469
5.958;0.02066
5.96;0.04076
5.962;-0.01039
5.964;0.0276
5.966;0.0121
5.968;0.01302
5.97;-0.00344
5.972;0.01314
5.974;0.01559
5.976;0.04266
5.978;0.01892
5.98;0.02958
5.982;0.03298
5.984;0.04314
5.986;0.02235
5.988;0.02475
5.99;0.02127
5.992;0.01229
5.994;0.02666
5.996;0.03033
5.998;0.04186
6.0;0.05853
6.002;0.03615
6.004;0.05155
6.006;0.01695
6.008;0.03495
6.01;0.01931
6.012;0.05898
6.014;0.04113
6.016;0.07618
6.018;0.0437
6.02;0.02612
6.022;0.04588
6.024;0.04838
6.026;0.07527
6.028;0.05128
6.03;0.06849
6.032;0.05974
6.034;0.09156
6.036;0.04846
6.038;0.05006
6.04;0.09787
6.042;0.09118
6.044;0.09429
6.046;0.06832
6.048;0.09944
6.05;0.1093
6.052;0.07765
6.054;0.12277
6.056;0.11619
6.058;0.12592
6.06;0.09188
6.062;0.14894
6.064;0.11977
6.066;0.14676
6.068;0.15824
6.07;0.1829
6.072;0.14005
6.074;0.16558
6.076;0.14922
6.078;0.19371
6.08;0.15922
6.082;0.20693
6.084;0.18201
6.086;0.17434
6.088;0.20113
6.09;0.19793
6.092;0.20144
6.094;0.23925
6.096;0.22694
6.098;0.24448
6.1;0.24869
6.102;0.24535
6.104;0.24184
6.106;0.29128
6.108;0.26441
6.11;0.25068
6.112;0.22889
6.114;0.29388
6.116;0.29326
6.118;0.27195
6.12;0.28403
6.122;0.28897
6.124;0.25627
6.126;0.24916
6.128;0.28862
6.13;0.24667
6.132;0.25618
6.134;0.26704
6.136;0.2973
6.138;0.29578
6.14;0.29196
6.142;0.23966
6.144;0.25361
6.146;0.25196
6.148;0.27916
6.15;0.24152
6.152;0.24243
6.154;0.23882
6.156;0.25601
6.158;0.21459
6.16;0.22219
6.162;0.23154
6.164;0.21792
6.166;0.2164
6.168;0.22395
6.17;0.21649
6.172;0.19902
6.174;0.18101
6.176;0.16768
6.178;0.18612
6.18;0.17823
6.182;0.17393
6.184;0.14583
6.186;0.17879
6.188;0.14747
6.19;0.18238
6.192;0.12662
6.194;0.09817
6.196;0.1166
6.198;0.12758
6.2;0.14305
6.202;0.12087
6.204;0.13964
6.206;0.1301
6.208;0.12409
6.21;0.11101
6.212;0.10702
6.214;0.08705
6.216;0.09367
6.218;0.06984
6.22;0.09121
6.222;0.07682
6.224;0.0415
6.226;0.07598
6.228;0.06324
6.23;0.07474
6.232;0.07992
6.234;0.05132
6.236;0.069
6.238;0.05093
6.24;0.05262
6.242;0.0397
6.244;0.04395
6.246;0.074
6.248;0.04632
6.25;0.07344
6.252;0.02981
6.254;0.08675
6.256;0.01204
6.258;0.05203
6.26;0.04886
6.262;0.04199
6.264;0.0326
6.266;0.06478
6.268;0.0692
6.27;-0.00175
6.272;0.01279
6.274;0.03717
6.276;0.06147
6.278;0.01047
6.28;0.04081
6.282;0.02581
6.284;0.06013
6.286;0.04847
6.288;0.05428
6.29;0.07381
6.292;0.03218
6.294;0.04349
6.296;0.02337
6.298;0.02038
6.3;0.02834
6.302;0.01456
6.304;0.03515
6.306;0.03335
6.308;0.05142
6.31;0.01232
6.312;0.04465
6.314;0.03235
6.316;0.04833
6.318;0.03621
6.32;0.02094
6.322;0.03543
6.324;0.02804
6.326;0.01256
6.328;0.04314
6.33;0.03821
6.332;0.03315
6.334;0.04591
6.336;0.05387
6.338;0.02806
6.34;0.06159
6.342;0.02367
6.344;0.03169
6.346;0.05355
6.348;0.02
6.35;0.04179
6.352;0.02548
6.354;0.04664
6.356;0.04757
6.358;0.03348
6.36;0.03859
6.362;0.03309
6.364;0.05478
6.366;0.02095
6.368;0.03915
6.37;0.06393
6.372;0.0396
6.374;0.07877
6.376;0.01141
6.378;0.00933
6.38;0.01946
6.382;0.06462
6.384;0.05523
6.386;0.0534
6.388;0.0765
6.39;0.06426
6.392;0.03684
6.394;0.06505
6.396;0.04515
6.398;0.04405
6.4;0.05794
6.402;0.0755
6.404;0.04369
6.406;0.02049
6.408;0.0511
6.41;0.05905
6.412;0.06785
6.414;0.02864
6.416;0.05008
6.418;0.09871
6.42;0.00133
6.422;0.03411
6.424;0.02968
6.426;0.05782
6.428;0.05375
6.43;0.05722
6.432;0.02972
6.434;0.04224
6.436;0.08735
6.438;0.03841
6.44;0.03274
6.442;0.04832
6.444;0.03707
6.446;0.07318
6.448;0.02641
6.45;0.05612
6.452;0.02983
6.454;0.05095
6.456;0.03014
6.458;0.00682
6.46;0.0627
6.462;0.0591
6.464;0.02873
6.466;0.0365
6.468;0.08585
6.47;0.02445
6.472;0.06444
6.474;0.03213
6.476;0.02297
6.478;0.03807
6.48;0.04525
6.482;0.06426
6.484;0.03984
6.486;0.05697
6.488;0.05202
6.49;0.03387
6.492;0.01598
6.494;0.04766
6.496;0.02783
6.498;0.05193
6.5;0.03729
6.502;0.02757
6.504;0.02765
6.506;0.0511
6.508;0.06324
6.51;0.02621
6.512;0.05442
6.514;0.05219
6.516;0.06362
6.518;0.04098
6.52;0.03313
6.522;0.06001
6.524;0.05797
6.526;0.01026
6.528;0.02025
6.53;0.05944
6.532;0.07072
6.534;0.03532
6.536;0.0506
6.538;0.08777
6.54;0.07862
6.542;0.0822
6.544;0.06823
6.546;0.08325
6.548;0.08064
6.55;0.0955
6.552;0.07445
6.554;0.10319
6.556;0.11984
6.558;0.10324
6.56;0.10041
6.562;0.13339
6.564;0.14868
6.566;0.12121
6.568;0.1568
6.57;0.12973
6.572;0.12393
6.574;0.14015
6.576;0.13382
6.578;0.09924
6.58;0.11999
6.582;0.08952
6.584;0.14278
6.586;0.12597
6.588;0.08836
6.59;0.11769
6.592;0.13282
6.594;0.1049
6.596;0.10592
6.598;0.11211
6.6;0.09341
6.602;0.11967
6.604;0.09915
6.606;0.08771
6.608;0.08738
6.61;0.08496
6.612;0.08896
6.614;0.06412
6.616;0.08971
6.618;0.08912
6.62;0.07932
6.622;0.09027
6.624;0.07398
6.626;0.03962
6.628;0.06563
6.63;0.06071
6.632;0.01421
6.634;0.05047
6.636;0.08046
6.638;0.04554
6.64;0.01999
6.642;0.01997
6.644;0.07169
6.646;0.05022
6.648;0.05472
6.65;0.04072
6.652;0.03022
6.654;0.02168
6.656;0.06458
6.658;0.09063
6.66;0.02966
6.662;0.04095
6.664;0.06465
6.666;0.07801
6.668;0.05589
6.67;0.05371
6.672;0.06907
6.674;0.05465
6.676;0.06067
6.678;0.0329
6.68;0.03362
6.682;0.03741
6.684;0.05784
6.686;0.02687
6.688;0.07581
6.69;0.04811
6.692;0.05899
6.694;0.08686
6.696;0.03204
6.698;0.03678
6.7;0.03649
6.702;0.05365
6.704;0.06137
6.706;0.02818
6.708;0.01792
6.71;0.05698
6.712;0.05853
6.714;0.04536
6.716;0.02208
6.718;0.00541
6.72;0.02402
6.722;-0.04577
6.724;0.00449
6.726;-0.0377
6.728;-0.02805
6.73;0.01091
6.732;0.05617
6.734;0.09848
6.736;0.18321
6.738;0.23314
6.74;0.35474
6.742;0.44221
6.744;0.508
6.746;0.63667
6.748;0.74042
6.75;0.82612
6.752;0.91853
6.754;0.94702
6.756;1.03129
6.758;1.05598
6.76;1.085
6.762;1.01211
6.764;0.97534
6.766;0.89381
6.768;0.79263
6.77;0.72072
6.772;0.59778
6.774;0.48059
6.776;0.37149
6.778;0.22982
6.78;0.19408
6.782;0.06813
6.784;0.00536
6.786;-0.05856
6.788;-0.08376
6.79;-0.12038
6.792;-0.15577
6.794;-0.1323
6.796;-0.12878
6.798;-0.13997
6.8;-0.10373
6.802;-0.09242
6.804;-0.08854
6.806;-0.05305
6.808;-0.03999
6.81;0.01414
6.812;-0.01203
6.814;0.05296
6.816;0.02019
6.818;0.05942
6.82;0.02977
6.822;0.0516
6.824;0.04921
6.826;0.05158
6.828;0.06194
6.83;0.04364
6.832;0.07812
6.834;0.03707
6.836;0.06557
6.838;0.06086
6.84;0.0841
6.842;0.04909
6.844;0.02976
6.846;0.04642
6.848;0.0671
6.85;0.02319
6.852;0.0528
6.854;0.07219
6.856;0.05246
6.858;0.0395
6.86;0.06783
6.862;0.07708
6.864;0.04489
6.866;0.07195
6.868;0.08307
6.87;0.0407
6.872;0.07313
6.874;0.05401
6.876;0.01189
6.878;0.05512
6.88;0.04982
6.882;0.05832
6.884;0.07774
6.886;0.05772
6.888;0.06496
6.89;0.0241
6.892;0.05535
6.894;0.08716
6.896;0.06603
6.898;0.07087
6.9;0.10841
6.902;0.05861
6.904;0.08747
6.906;0.07457
6.908;0.07669
6.91;0.08465
6.912;0.11272
6.914;0.08523
6.916;0.09866
6.918;0.09924
6.92;0.09498
6.922;0.11088
6.924;0.11574
6.926;0.12528
6.928;0.13755
6.93;0.10832
6.932;0.11863
6.934;0.13822
6.936;0.12869
6.938;0.13457
6.94;0.1385
6.942;0.14048
6.944;0.1349
6.946;0.11713
6.948;0.16824
6.95;0.16516
6.952;0.14464
6.954;0.17915
6.956;0.21275
6.958;0.22001
6.96;0.20082
6.962;0.19738
6.964;0.23024
6.966;0.22478
6.968;0.2242
6.97;0.20206
6.972;0.22886
6.974;0.21502
6.976;0.22579
6.978;0.24908
6.98;0.26524
6.982;0.26755
6.984;0.26934
6.986;0.28294
6.988;0.2596
6.99;0.26056
6.992;0.25768
6.994;0.27343
6.996;0.34282
6.998;0.27525
7.0;0.31458
7.002;0.29313
7.004;0.30798
7.006;0.30463
7.008;0.28921
7.01;0.30416
7.012;0.28695
7.014;0.29234
7.016;0.29184
7.018;0.32354
7.02;0.2921
7.022;0.25809
7.024;0.28807
7.026;0.27624
7.028;0.30946
7.03;0.26537
7.032;0.27152
7.034;0.27304
7.036;0.2374
7.038;0.28041
7.04;0.2401
7.042;0.27707
7.044;0.23647
7.046;0.2238
7.048;0.23929
7.05;0.24363
7.052;0.24845
7.054;0.20856
7.056;0.22615
7.058;0.21751
7.06;0.21148
7.062;0.21226
7.064;0.18912
7.066;0.18525
7.068;0.14906
7.07;0.22499
7.072;0.16283
7.074;0.17687
7.076;0.13082
7.078;0.14847
7.08;0.15715
7.082;0.15201
7.084;0.13167
7.086;0.12067
7.088;0.11963
7.09;0.14063
7.092;0.11677
7.094;0.11372
7.096;0.112
7.098;0.09614
7.1;0.09527
7.102;0.06778
7.104;0.07996
7.106;0.12583
7.108;0.06003
7.11;0.08919
7.112;0.06951
7.114;0.06993
7.116;0.05811
7.118;0.04281
7.12;0.04887
7.122;0.05535
7.124;0.06757
7.126;0.05354
7.128;0.05274
7.13;0.08394
7.132;0.08513
7.134;0.07472
7.136;0.05751
7.138;0.05746
7.14;0.06345
7.142;0.04229
7.144;0.04527
7.146;0.07254
7.148;0.05478
7.15;0.03078
7.152;0.04778
7.154;0.06932
7.156;0.07355
7.158;0.05473
7.16;0.04455
7.162;0.05197
7.164;0.06221
7.166;0.0503
7.168;0.04139
7.17;0.02928
7.172;0.05149
7.174;0.08789
7.176;0.01873
7.178;0.03772
7.18;0.03519
7.182;0.02591
7.184;0.01584
7.186;0.05116
7.188;0.04686
7.19;0.0648
7.192;0.05453
7.194;0.06399
7.196;0.06503
7.198;0.06599
7.2;0.06137
7.202;0.03648
7.204;0.02361
7.206;0.06283
7.208;0.05066
7.21;0.0451
7.212;0.04337
7.214;0.05129
7.216;0.05298
7.218;0.03415
7.22;0.0719
7.222;0.02548
7.224;0.04214
7.226;0.06283
7.228;0.01173
7.23;0.02249
7.232;0.09359
7.234;0.0457
7.236;0.04744
7.238;0.05639
7.24;0.01525
7.242;0.03334
7.244;0.06246
7.246;0.0411
7.248;0.03695
7.25;0.05547
7.252;0.06103
7.254;0.07022
7.256;0.05293
7.258;0.04567
7.26;0.03931
7.262;0.05282
7.264;0.03562
7.266;0.04627
7.268;0.02519
7.27;0.05448
7.272;0.07561
7.274;0.01456
7.276;0.01658
7.278;0.04778
7.28;0.05363
7.282;0.02632
7.284;0.03812
7.286;0.05202
7.288;0.05289
7.29;0.03006
7.292;0.03988
7.294;0.05703
7.296;0.05772
7.298;0.06028
7.3;0.04033
7.302;0.01988
7.304;0.07019
7.306;0.03406
7.308;0.02415
7.31;0.05423
7.312;0.04538
7.314;0.02743
7.316;0.05426
7.318;0.02355
7.32;0.08093
7.322;0.07011
7.324;0.06872
7.326;0.02556
7.328;0.0393
7.33;0.07696
7.332;0.03852
7.334;0.03447
7.336;0.04771
7.338;0.05113
7.34;0.04807
7.342;0.02419
7.344;0.06357
7.346;0.02865
7.348;0.07413
7.35;0.04881
7.352;0.06188
7.354;0.07734
7.356;0.03111
7.358;0.08334
7.36;0.03061
7.362;0.07302
7.364;0.02561
7.366;0.06891
7.368;0.08105
7.37;0.04857
7.372;0.04581
7.374;0.08309
7.376;0.05563
7.378;0.02982
7.38;0.04099
7.382;0.042
7.384;0.05317
7.386;0.10989
7.388;0.06812
7.39;0.07595
7.392;0.05415
7.394;0.09812
7.396;0.08186
7.398;0.09759
7.4;0.12418
7.402;0.10476
7.404;0.12494
7.406;0.12912
7.408;0.12011
7.41;0.08111
7.412;0.10417
7.414;0.1163
7.416;0.12185
7.418;0.12634
7.42;0.12768
7.422;0.1399
7.424;0.11617
7.426;0.14157
7.428;0.09308
7.43;0.13416
7.432;0.1181
7.434;0.11976
7.436;0.10724
7.438;0.1421
7.44;0.12276
7.442;0.14509
7.444;0.10016
7.446;0.03846
7.448;0.0773
7.45;0.09183
7.452;0.10673
7.454;0.10134
7.456;0.07343
7.458;0.08273
7.46;0.08976
7.462;0.09325
7.464;0.05913
7.466;0.0714
7.468;0.06103
7.47;0.08814
7.472;0.07376
7.474;0.07043
7.476;0.10541
7.478;0.04435
7.48;0.03964
7.482;0.04884
7.484;0.03747
7.486;0.06801
7.488;0.01368
7.49;0.04844
7.492;0.01761
7.494;0.03054
7.496;0.02916
7.498;0.04726
7.5;0.04132
7.502;0.07268
7.504;0.03931
7.506;0.05264
7.508;0.06238
7.51;0.02473
7.512;0.02552
7.514;0.05616
7.516;0.00302
7.518;0.0554
7.52;0.06162
7.522;0.02417
7.524;0.05457
7.526;0.02554
7.528;0.03284
7.53;0.05314
7.532;0.00395
7.534;0.05576
7.536;0.03407
7.538;0.03048
7.54;0.04558
7.542;0.03117
7.544;0.01063
7.546;-0.00372
7.548;0.01204
7.55;0.01902
7.552;0.05246
7.554;0.04074
7.556;0.01592
7.558;0.03677
7.56;0.00435
7.562;0.05237
7.564;0.01567
7.566;0.00298
7.568;-0.00838
7.57;-0.04452
7.572;-0.04509
7.574;0.00135
7.576;0.02704
7.578;0.01138
7.58;0.07297
7.582;0.20265
7.584;0.21953
7.586;0.32926
7.588;0.44343
7.59;0.5325
7.592;0.62489
7.594;0.71018
7.596;0.77442
7.598;0.87312
7.6;0.96362
7.602;0.98802
7.604;1.01465
7.606;0.99663
7.608;1.00986
7.61;0.91667
7.612;0.92911
7.614;0.84586
7.616;0.71445
7.618;0.63077
7.62;0.48522
7.622;0.38822
7.624;0.30037
7.626;0.15807
7.628;0.08369
7.63;0.00143
7.632;-0.06765
7.634;-0.11929
7.636;-0.14029
7.638;-0.18718
7.64;-0.15303
7.642;-0.1858
7.644;-0.17509
7.646;-0.1293
7.648;-0.10946
7.65;-0.1125
7.652;-0.07054
7.654;-0.02522
7.656;-0.01402
7.658;-0.01382
7.66;0.00444
7.662;0.00442
7.664;0.01395
7.666;0.03245
7.668;0.00195
7.67;0.0038
7.672;0.02966
7.674;0.02
7.676;0.0332
7.678;0.04091
7.68;0.03077
7.682;0.02132
7.684;0.0218
7.686;0.01852
7.688;0.01976
7.69;0.05818
7.692;0.0123
7.694;0.04191
7.696;0.02912
7.698;0.06271
7.7;-0.00059
7.702;0.01946
7.704;0.02132
7.706;0.06325
7.708;0.06177
7.71;0.01422
7.712;0.03805
7.714;0.03808
7.716;0.05991
7.718;0.05124
7.72;0.03339
7.722;0.04577
7.724;0.04064
7.726;0.00334
7.728;0.03823
7.73;0.05006
7.732;0.04567
7.734;0.01397
7.736;0.03861
7.738;0.04532
7.74;0.05656
7.742;0.01442
7.744;0.04876
7.746;0.03292
7.748;0.09345
7.75;0.07675
7.752;0.06048
7.754;0.04591
7.756;0.07699
7.758;0.08086
7.76;0.07654
7.762;0.06711
7.764;0.07695
7.766;0.07316
7.768;0.05893
7.77;0.12612
7.772;0.07744
7.774;0.08381
7.776;0.11114
7.778;0.10691
7.78;0.11139
7.782;0.12604
7.784;0.10971
7.786;0.11758
7.788;0.127
7.79;0.12932
7.792;0.12222
7.794;0.17295
7.796;0.17472
7.798;0.19242
7.8;0.18473
7.802;0.19044
7.804;0.15239
7.806;0.18313
7.808;0.19511
7.81;0.18509
7.812;0.19429
7.814;0.2279
7.816;0.21019
7.818;0.23173
7.82;0.23322
7.822;0.22412
7.824;0.22008
7.826;0.25429
7.828;0.23943
7.83;0.2584
7.832;0.24501
7.834;0.22123
7.836;0.23105
7.838;0.27523
7.84;0.22382
7.842;0.27737
7.844;0.26436
7.846;0.29428
7.848;0.2982
7.85;0.26616
7.852;0.24894
7.854;0.24089
7.856;0.2855
7.858;0.26909
7.86;0.27605
7.862;0.22941
7.864;0.26355
7.866;0.2837
7.868;0.27775
7.87;0.25391
7.872;0.25899
7.874;0.24139
7.876;0.22751
7.878;0.24217
7.88;0.26904
7.882;0.24545
7.884;0.25102
7.886;0.23574
7.888;0.24034
7.89;0.22222
7.892;0.22147
7.894;0.207
7.896;0.17492
7.898;0.22445
7.9;0.20403
7.902;0.18209
7.904;0.16008
7.906;0.17962
7.908;0.196
7.91;0.13982
7.912;0.17973
7.914;0.1531
7.916;0.12763
7.918;0.16338
7.92;0.12483
7.922;0.12501
7.924;0.12014
7.926;0.11246
7.928;0.11533
7.93;0.10985
7.932;0.07923
7.934;0.10061
7.936;0.11624
7.938;0.06971
7.94;0.07478
7.942;0.10634
7.944;0.06597
7.946;0.08028
7.948;0.12376
7.95;0.04381
7.952;0.08652
7.954;0.05558
7.956;0.02891
7.958;0.06035
7.96;0.05571
7.962;0.04911
7.964;0.04289
7.966;0.04108
7.968;0.02815
7.97;0.04278
7.972;0.02793
7.974;0.04304
7.976;0.04674
7.978;0.04739
7.98;0.05045
7.982;0.06357
7.984;0.01253
7.986;-0.00566
7.988;0.01449
7.99;0.02563
7.992;0.04126
7.994;0.02052
7.996;0.00737
7.998;0.01966
8.0;0.03437
8.002;0.0155
8.004;0.04246
8.006;0.02898
8.008;-0.01397
8.01;0.03676
8.012;0.0073
8.014;0.02747
8.016;-0.01157
8.018;0.05736
8.02;0.03567
8.022;-0.01776
8.024;-0.02119
8.026;0.00608
8.028;0.02488
8.03;0.01907
8.032;-0.00893
8.034;0.01672
8.036;-0.0059
8.038;-0.00643
8.04;-0.0003
8.042;0.01456
8.044;0.05027
8.046;0.00068
8.048;-0.0097
8.05;0.03501
8.052;0.02952
8.054;-0.00501
8.056;0.01557
8.058;0.02445
8.06;-0.01163
8.062;0.05015
8.064;0.02572
8.066;0.00517
8.068;0.05584
8.07;0.0182
8.072;-0.01832
8.074;0.00413
8.076;0.03064
8.078;0.01976
8.08;0.001
8.082;0.01537
8.084;0.00302
8.086;-0.01012
8.088;0.01883
8.09;0.00222
8.092;0.03369
8.094;0.01664
8.096;0.01751
8.098;0.01926
8.1;-0.0039
8.102;-0.00338
8.104;-0.00257
8.106;-0.01806
8.108;-0.04073
8.11;-0.01118
8.112;0.00178
8.114;-0.00444
8.116;0.00158
8.118;0.0287
8.12;-0.0063
8.122;-0.01225
8.124;-0.02474
8.126;0.0072
8.128;0.03591
8.13;0.02638
8.132;-0.00123
8.134;0.0374
8.136;0.02288
8.138;0.01514
8.14;0.02484
8.142;0.01631
8.144;0.00281
8.146;0.00348
8.148;-0.0241
8.15;0.02944
8.152;0.03094
8.154;0.00692
8.156;-0.00102
8.158;0.00761
8.16;-0.01115
8.162;0.02068
8.164;0.00644
8.166;0.03888
8.168;0.00343
8.17;0.00954
8.172;0.02397
8.174;-0.01836
8.176;-0.02215
8.178;0.01033
8.18;-0.00462
8.182;0.0094
8.184;0.00751
8.186;0.00575
8.188;0.00074
8.19;0.02517
8.192;-0.00599
8.194;-0.00471
8.196;0.00838
8.198;0.01485
8.2;0.01166
8.202;0.03201
8.204;-0.01675
8.206;0.01144
8.208;0.00471
8.21;0.04016
8.212;0.01687
8.214;0.00154
8.216;0.0013
8.218;0.02215
8.22;0.00134
8.222;7e-05
8.224;-0.01332
8.226;0.02878
8.228;0.0091
8.23;-0.00339
8.232;0.01972
8.234;-0.00588
8.236;0.03024
8.238;0.02984
8.24;0.00553
8.242;0.0162
8.244;-0.01234
8.246;0.06742
8.248;0.0211
8.25;0.01966
8.252;0.02025
8.254;-0.01462
8.256;0.05684
8.258;0.0371
8.26;0.03115
8.262;0.0474
8.264;0.00946
8.266;0.03276
8.268;0.06755
8.27;0.02486
8.272;0.0755
8.274;0.0861
8.276;0.04812
8.278;0.03532
8.28;0.05874
8.282;0.07767
8.284;0.09598
8.286;0.06326
8.288;0.06033
8.29;0.09297
8.292;0.08434
8.294;0.08332
8.296;0.0936
8.298;0.05932
8.3;0.05959
8.302;0.07879
8.304;0.0737
8.306;0.09002
8.308;0.04948
8.31;0.03667
8.312;0.07368
8.314;0.08523
8.316;0.02879
8.318;0.07464
8.32;0.03555
8.322;0.04798
8.324;0.02301
8.326;0.02738
8.328;0.01773
8.33;0.03129
8.332;0.01875
8.334;0.02163
8.336;-0.00451
8.338;0.00878
8.34;0.02629
8.342;0.01026
8.344;-0.00138
8.346;-0.00165
8.348;0.01754
8.35;-0.01017
8.352;0.01675
8.354;0.0517
8.356;-0.00044
8.358;-0.03153
8.36;-0.01488
8.362;0.01749
8.364;0.04772
8.366;-0.00134
8.368;0.00423
8.37;0.02219
8.372;0.00538
8.374;0.02714
8.376;0.02233
8.378;0.04103
8.38;0.02082
8.382;-0.01192
8.384;0.00505
8.386;0.00623
8.388;-0.01598
8.39;0.01949
8.392;0.0023
8.394;-0.02337
8.396;0.01239
8.398;0.01782
8.4;0.00791
8.402;0.00268
8.404;0.01711
8.406;0.02173
8.408;-0.0436
8.41;-0.03981
8.412;-0.01009
8.414;-0.02482
8.416;0.02649
8.418;-0.01067
8.42;-0.04154
8.422;-0.01831
8.424;0.00576
8.426;-0.00749
8.428;-0.02008
8.43;-0.05604
8.432;-0.06512
8.434;-0.0551
8.436;-0.05301
8.438;-0.09991
8.44;-0.06074
8.442;-0.06179
8.444;-0.0383
8.446;-0.00594
8.448;0.06367
8.45;0.11354
8.452;0.20861
8.454;0.27112
8.456;0.36646
8.458;0.47158
8.46;0.57489
8.462;0.64261
8.464;0.73795
8.466;0.84131
8.468;0.87675
8.47;0.9595
8.472;0.95394
8.474;0.97317
8.476;0.98121
8.478;0.8863
8.48;0.81913
8.482;0.74834
8.484;0.6641
8.486;0.57134
8.488;0.43314
8.49;0.30563
8.492;0.26967
8.494;0.14028
8.496;0.00989
8.498;-0.02862
8.5;-0.09913
8.502;-0.10899
8.504;-0.18238
8.506;-0.19613
8.508;-0.18081
8.51;-0.19879
8.512;-0.22631
8.514;-0.16869
8.516;-0.1667
8.518;-0.15908
8.52;-0.13091
8.522;-0.0958
8.524;-0.07859
8.526;-0.06453
8.528;-0.04868
8.53;-0.01077
8.532;-0.05538
8.534;-0.00994
8.536;-0.02254
8.538;-0.03045
8.54;-0.01573
8.542;-0.00463
8.544;0.00372
8.546;0.00754
8.548;-0.00131
8.55;-0.02155
8.552;0.01139
8.554;0.00205
8.556;-0.02713
8.558;-0.00788
8.56;0.02306
8.562;-0.00246
8.564;-0.01366
8.566;-0.02606
8.568;-0.02415
8.57;-0.03015
8.572;-0.00677
8.574;-0.02683
8.576;-0.03826
8.578;0.00663
8.58;-0.01232
8.582;-0.03938
8.584;-0.00182
8.586;-0.02706
8.588;-0.00386
8.59;-0.03761
8.592;-0.00375
8.594;-0.0053
8.596;-0.01335
8.598;-0.02642
8.6;0.01232
8.602;-0.01345
8.604;-0.01214
8.606;0.0112
8.608;-0.02907
8.61;-0.00797
8.612;-0.0225
8.614;-0.02293
8.616;0.02677
8.618;0.01194
8.62;-0.01603
8.622;0.01112
8.624;0.01474
8.626;0.02154
8.628;0.02315
8.63;0.00148
8.632;0.01505
8.634;0.0243
8.636;0.01782
8.638;0.02739
8.64;0.05734
8.642;0.01751
8.644;0.06689
8.646;0.06808
8.648;0.06998
8.65;0.08374
8.652;0.06289
8.654;0.0867
8.656;0.05977
8.658;0.09817
8.66;0.06936
8.662;0.05753
8.664;0.10126
8.666;0.13779
8.668;0.12051
8.67;0.13904
8.672;0.1301
8.674;0.16303
8.676;0.12568
8.678;0.16936
8.68;0.13255
8.682;0.15371
8.684;0.16658
8.686;0.176
8.688;0.14356
8.69;0.17687
8.692;0.16402
8.694;0.19428
8.696;0.17475
8.698;0.17547
8.7;0.20328
8.702;0.22255
8.704;0.20282
8.706;0.19655
8.708;0.25339
8.71;0.25081
8.712;0.22692
8.714;0.21461
8.716;0.2465
8.718;0.23102
8.72;0.21992
8.722;0.20014
8.724;0.23517
8.726;0.24577
8.728;0.21269
8.73;0.22668
8.732;0.21646
8.734;0.22672
8.736;0.20062
8.738;0.23892
8.74;0.24142
8.742;0.20164
8.744;0.23075
8.746;0.21127
8.748;0.20629
8.75;0.18579
8.752;0.17306
8.754;0.17116
8.756;0.15205
8.758;0.20793
8.76;0.1799
8.762;0.15342
8.764;0.15788
8.766;0.1852
8.768;0.15608
8.77;0.14998
8.772;0.14107
8.774;0.1279
8.776;0.13812
8.778;0.11944
8.78;0.12144
8.782;0.11486
8.784;0.08676
8.786;0.08868
8.788;0.01032
8.79;0.06248
8.792;0.06099
8.794;0.06305
8.796;0.06252
8.798;0.05324
8.8;0.05517
8.802;0.04415
8.804;0.0505
8.806;0.05104
8.808;0.04298
8.81;0.04144
8.812;0.02941
8.814;0.01924
8.816;0.04876
8.818;0.00812
8.82;-0.01515
8.822;0.00754
8.824;0.01271
8.826;0.0081
8.828;0.00806
8.83;-0.00259
8.832;0.0137
8.834;0.00639
8.836;-0.02677
8.838;0.01589
8.84;-0.01285
8.842;-0.0403
8.844;-0.05094
8.846;-0.04609
8.848;-0.00467
8.85;-0.02111
8.852;0.00228
8.854;-0.00993
8.856;-0.02924
8.858;-0.02082
8.86;0.01576
8.862;-0.02451
8.864;-0.02209
8.866;-0.01824
8.868;-0.05043
8.87;-0.02681
8.872;-0.03909
8.874;-0.02841
8.876;-0.01899
8.878;-0.00358
8.88;-0.05047
8.882;-0.04389
8.884;-0.03805
8.886;-0.04993
8.888;-0.03471
8.89;-0.03407
8.892;-0.04187
8.894;-0.03601
8.896;-0.05565
8.898;-0.05884
8.9;-0.02552
8.902;-0.02261
8.904;-0.02909
8.906;-0.07393
8.908;-0.03114
8.91;-0.01679
8.912;-0.02383
8.914;-0.0515
8.916;-0.09579
8.918;-0.03479
8.92;-0.02643
8.922;-0.01276
8.924;-0.01076
8.926;-0.05155
8.928;-0.01185
8.93;-0.04494
8.932;-0.02567
8.934;-0.0349
8.936;-0.02629
8.938;-0.02827
8.94;-0.01842
8.942;-0.0111
8.944;-0.03221
8.946;-0.04573
8.948;-0.0894
8.95;-0.04321
8.952;-0.02478
8.954;-0.03986
8.956;-0.04106
8.958;-0.03433
8.96;-0.04202
8.962;-0.0235
8.964;-0.03163
8.966;-0.02853
8.968;-0.0433
8.97;-0.05099
8.972;-0.03922
8.974;-0.02529
8.976;-0.04425
8.978;-0.03226
8.98;-0.08342
8.982;-0.00648
8.984;-0.03408
8.986;-0.06388
8.988;-0.03568
8.99;-0.0366
8.992;-0.03316
8.994;-0.03045
8.996;-0.04211
8.998;0.00473
9.0;-0.01222
9.002;-0.06362
9.004;-0.0514
9.006;-0.03068
9.008;-0.03678
9.01;-0.0113
9.012;0.00148
9.014;-0.01277
9.016;-0.06839
9.018;-0.06239
9.02;-0.03216
9.022;-0.00334
9.024;-0.02377
9.026;-0.01562
9.028;-0.01577
9.03;-0.048
9.032;-0.03616
9.034;-0.01511
9.036;-0.04288
9.038;-0.04324
9.04;-0.00443
9.042;0.00344
9.044;-0.05667
9.046;-0.00836
9.048;-0.03346
9.05;-0.03461
9.052;-0.01914
9.054;-0.02585
9.056;-0.00221
9.058;-0.01914
9.06;-0.0194
9.062;-0.02643
9.064;-0.0481
9.066;0.02501
9.068;-0.02346
9.07;-0.01074
9.072;0.02313
9.074;0.02972
9.076;0.02272
9.078;0.05328
9.08;0.02765
9.082;0.03065
9.084;0.01142
9.086;0.04639
9.088;0.01621
9.09;0.04779
9.092;0.03801
9.094;0.00239
9.096;0.0214
9.098;0.01196
9.1;0.03858
9.102;0.04634
9.104;0.03679
9.106;0.0275
9.108;0.0361
9.11;0.03443
9.112;-0.00216
9.114;0.05447
9.116;0.03448
9.118;0.02654
9.12;0.01975
9.122;-0.00046
9.124;0.07015
9.126;0.02415
9.128;0.00261
9.13;-0.02345
9.132;0.0106
9.134;-0.00278
9.136;0.00766
9.138;-0.00667
9.14;-0.02684
9.142;-0.02368
9.144;-0.04414
9.146;-0.01265
9.148;-0.05467
9.15;-0.04866
9.152;-0.02245
9.154;-0.0867
9.156;-0.05938
9.158;-0.06539
9.16;0.00185
9.162;-0.05481
9.164;-0.0323
9.166;-0.04009
9.168;-0.05458
9.17;-0.04047
9.172;-0.04042
9.174;-0.04448
9.176;-0.04089
9.178;-0.05394
9.18;-0.04329
9.182;-0.06559
9.184;-0.02577
9.186;-0.03614
9.188;-0.06931
9.19;-0.03538
9.192;-0.03518
9.194;-0.02992
9.196;-0.03856
9.198;-0.04954
9.2;-0.03569
9.202;-0.05052
9.204;-0.05588
9.206;-0.05744
9.208;-0.01004
9.21;-0.05059
9.212;-0.02591
9.214;-0.04385
9.216;-0.03693
9.218;-0.04088
9.22;-0.03228
9.222;-0.04777
9.224;-0.09068
9.226;-0.04934
9.228;-0.04296
9.23;-0.02488
9.232;-0.04959
9.234;-0.04113
9.236;-0.06879
9.238;-0.0846
9.24;-0.06978
9.242;-0.0861
9.244;-0.10686
9.246;-0.0894
9.248;-0.11121
9.25;-0.07146
9.252;-0.04703
9.254;0.01442
9.256;0.07422
9.258;0.10455
9.26;0.21422
9.262;0.28048
9.264;0.37227
9.266;0.52186
9.268;0.61029
9.27;0.72397
9.272;0.7963
9.274;0.83651
9.276;0.85276
9.278;0.93124
9.28;0.96161
9.282;0.95292
9.284;0.90754
9.286;0.85701
9.288;0.78121
9.29;0.66631
9.292;0.54983
9.294;0.41124
9.296;0.33802
9.298;0.20484
9.3;0.12955
9.302;0.0287
9.304;-0.05858
9.306;-0.11572
9.308;-0.16203
9.31;-0.21683
9.312;-0.22374
9.314;-0.26313
9.316;-0.25237
9.318;-0.20767
9.32;-0.20978
9.322;-0.17564
9.324;-0.15398
9.326;-0.13051
9.328;-0.14558
9.33;-0.0937
9.332;-0.07093
9.334;-0.06382
9.336;-0.06345
9.338;-0.0328
9.34;-0.09274
9.342;-0.06434
9.344;-0.06308
9.346;-0.06331
9.348;-0.05526
9.35;-0.01257
9.352;-0.03734
9.354;-0.05798
9.356;-0.01874
9.358;-0.02598
9.36;-0.02193
9.362;-0.04961
9.364;-0.04979
9.366;-0.04865
9.368;-0.03231
9.37;-0.04334
9.372;-0.05323
9.374;-0.06528
9.376;-0.04127
9.378;-0.03682
9.38;-0.0388
9.382;-0.04988
9.384;-0.06501
9.386;-0.04485
9.388;-0.0322
9.39;-0.03014
9.392;-0.02649
9.394;-0.05019
9.396;-0.00949
9.398;-0.02328
9.4;-0.01091
9.402;-0.04488
9.404;-0.00965
9.406;-0.02447
9.408;-0.04048
9.41;-0.0125
9.412;-0.05497
9.414;-0.01427
9.416;-0.04454
9.418;-0.02626
9.42;0.00418
9.422;-0.01898
9.424;-0.0135
9.426;-0.04841
9.428;0.00944
9.43;-0.01048
9.432;-0.03589
9.434;-0.00878
9.436;-0.00489
9.438;0.0042
9.44;0.04206
9.442;0.00969
9.444;-0.00592
9.446;0.00556
9.448;-0.00595
9.45;0.03163
9.452;0.01422
9.454;0.0177
9.456;0.01402
9.458;0.07258
9.46;0.05054
9.462;0.04313
9.464;0.05218
9.466;0.05614
9.468;0.068
9.47;0.08909
9.472;0.08574
9.474;0.08396
9.476;0.10051
9.478;0.07102
9.48;0.09697
9.482;0.0919
9.484;0.08434
9.486;0.116
9.488;0.08069
9.49;0.14192
9.492;0.12047
9.494;0.13573
9.496;0.17184
9.498;0.14803
9.5;0.15454
9.502;0.17219
9.504;0.21621
9.506;0.17618
9.508;0.14712
9.51;0.16445
9.512;0.18197
9.514;0.1633
9.516;0.17489
9.518;0.17992
9.52;0.19461
9.522;0.19595
9.524;0.2163
9.526;0.19735
9.528;0.21463
9.53;0.20347
9.532;0.17499
9.534;0.20844
9.536;0.17989
9.538;0.21897
9.54;0.19627
9.542;0.19711
9.544;0.17275
9.546;0.19082
9.548;0.16028
9.55;0.17455
9.552;0.17851
9.554;0.1878
9.556;0.16013
9.558;0.16837
9.56;0.1661
9.562;0.17904
9.564;0.15031
9.566;0.16083
9.568;0.12877
9.57;0.15801
9.572;0.12295
9.574;0.13734
9.576;0.1379
9.578;0.12716
9.58;0.09479
9.582;0.09759
9.584;0.09553
9.586;0.06958
9.588;0.09446
9.59;0.11092
9.592;0.03876
9.594;0.09404
9.596;0.03301
9.598;0.07408
9.6;0.07819
9.602;0.06441
9.604;0.02558
9.606;0.00863
9.608;0.07039
9.61;0.0053
9.612;0.03357
9.614;0.01089
9.616;0.01275
9.618;-0.00431
9.62;0.0205
9.622;-0.02235
9.624;-0.01493
9.626;-0.01499
9.628;-0.0221
9.63;-0.01943
9.632;-0.03749
9.634;-0.01981
9.636;-0.0525
9.638;-0.01442
9.64;-0.04295
9.642;-0.02937
9.644;-0.0321
9.646;-0.03204
9.648;-0.06852
9.65;-0.02308
9.652;-0.03523
9.654;-0.01422
9.656;-0.02519
9.658;-0.00638
9.66;-0.00552
9.662;-0.08135
9.664;-0.05148
9.666;-0.04854
9.668;0.00276
9.67;-0.04536
9.672;-0.04403
9.674;-0.03979
9.676;-0.05515
9.678;-0.03295
9.68;-0.04178
9.682;-0.03045
9.684;-0.04118
9.686;-0.10316
9.688;-0.01463
9.69;-0.01763
9.692;-0.0607
9.694;-0.05245
9.696;-0.01794
9.698;-0.06299
9.7;-0.05653
9.702;-0.03728
9.704;-0.02561
9.706;-0.06065
9.708;-0.06494
9.71;-0.01716
9.712;-0.03412
9.714;-0.03501
9.716;-0.04596
9.718;-0.05616
9.72;-0.03438
9.722;-0.07977
9.724;-0.05237
9.726;-0.04479
9.728;-0.06646
9.73;-0.05775
9.732;-0.07914
9.734;-0.00498
9.736;-0.05563
9.738;-0.04982
9.74;-0.0531
9.742;-0.02504
9.744;-0.05118
9.746;-0.04076
9.748;-0.03825
9.75;-0.06457
9.752;-0.07199
9.754;-0.06107
9.756;-0.06232
9.758;-0.06572
9.76;-0.0463
9.762;-0.06606
9.764;-0.06599
9.766;-0.07367
9.768;-0.03817
9.77;-0.04115
9.772;-0.07709
9.774;-0.04119
9.776;-0.03457
9.778;-0.07458
9.78;-0.0364
9.782;-0.03737
9.784;-0.05443
9.786;-0.06469
9.788;-0.07006
9.79;-0.05126
9.792;-0.06356
9.794;-0.04145
9.796;-0.0553
9.798;-0.0568
9.8;-0.09934
9.802;-0.04212
9.804;-0.0388
9.806;-0.06505
9.808;-0.03442
9.81;-0.03893
9.812;-0.04387
9.814;-0.05337
9.816;-0.04661
9.818;-0.03338
9.82;-0.04545
9.822;-0.05848
9.824;-0.06806
9.826;-0.05824
9.828;-0.0358
9.83;-0.03651
9.832;-0.0402
9.834;-0.03665
9.836;-0.0112
9.838;-0.05818
9.84;-0.04095
9.842;-0.03861
9.844;-0.02849
9.846;-0.03053
9.848;-0.05279
9.85;-0.06594
9.852;-0.0414
9.854;0.00318
9.856;-0.02108
9.858;-0.00421
9.86;-0.00793
9.862;-0.01926
9.864;-0.00705
9.866;-0.03275
9.868;0.01822
9.87;0.00939
9.872;-0.00163
9.874;0.01329
9.876;-0.00634
9.878;-0.00189
9.88;0.02377
9.882;0.011
9.884;0.05393
9.886;0.01034
9.888;-0.00418
9.89;0.05026
9.892;0.03361
9.894;0.0288
9.896;0.02571
9.898;0.04204
9.9;0.01178
9.902;0.05923
9.904;0.07189
9.906;0.04105
9.908;0.0476
9.91;-0.00486
9.912;0.02951
9.914;0.00155
9.916;0.01495
9.918;0.01425
9.92;0.01079
9.922;0.00464
9.924;-0.00088
9.926;0.00121
9.928;0.01979
9.93;-0.01193
9.932;-0.00259
9.934;-0.01168
9.936;-0.03143
9.938;-0.0239
9.94;-0.00298
9.942;0.00223
9.944;-0.03535
9.946;-0.0263
9.948;-0.07687
9.95;-0.04395
9.952;-0.02909
9.954;-0.05553
9.956;-0.0699
9.958;-0.06129
9.96;-0.04767
9.962;-0.04425
9.964;-0.03551
9.966;-0.04423
9.968;-0.04166
9.97;-0.02637
9.972;-0.01667
9.974;-0.0552
9.976;-0.02003
9.978;-0.04862
9.98;-0.06039
9.982;-0.04472
9.984;-0.04717
9.986;-0.03262
9.988;-0.04889
9.99;-0.11384
9.992;-0.0408
9.994;-0.01734
9.996;-0.01739
9.998;-0.02474
10.0;-0.04019
10.002;-0.04417
10.004;-0.04003
10.006;-0.03207
10.008;-0.04102
10.01;-0.05232
10.012;-0.07124
10.014;-0.03481
10.016;-0.0542
10.018;-0.06768
10.02;-0.05151
10.022;-0.01491
10.024;-0.04638
10.026;-0.09173
10.028;-0.07119
10.03;-0.04046
10.032;-0.05499
10.034;-0.07763
10.036;-0.07979
10.038;-0.07165
10.04;-0.09228
10.042;-0.13498
10.044;-0.12561
10.046;-0.12982
10.048;-0.11627
10.05;-0.11556
10.052;-0.06066
10.054;0.00828
10.056;0.05966
10.058;0.14923
10.06;0.22581
10.062;0.33748
10.064;0.44954
10.066;0.51519
10.068;0.59887
10.07;0.68726
10.072;0.78236
10.074;0.8612
10.076;0.93407
10.078;0.929
10.08;0.9293
10.082;0.88965
10.084;0.85242
10.086;0.80645
10.088;0.74489
10.09;0.59755
10.092;0.53988
10.094;0.42328
10.096;0.32156
10.098;0.1821
10.1;0.09007
10.102;0.03689
10.104;-0.03371
10.106;-0.13282
10.108;-0.18634
10.11;-0.22318
10.112;-0.23335
10.114;-0.26808
10.116;-0.23115
10.118;-0.21566
10.12;-0.23713
10.122;-0.18359
10.124;-0.18185
10.126;-0.15265
10.128;-0.10574
10.13;-0.13715
10.132;-0.08811
10.134;-0.0754
10.136;-0.05029
10.138;-0.06675
10.14;-0.04618
10.142;-0.06225
10.144;-0.02642
10.146;-0.05634
10.148;-0.04874
10.15;-0.04729
10.152;-0.03264
10.154;-0.06181
10.156;-0.05406
10.158;-0.01855
10.16;-0.05409
10.162;-0.03082
10.164;-0.05773
10.166;-0.04306
10.168;-0.06142
10.17;-0.05923
10.172;-0.02646
10.174;-0.04705
10.176;-0.05339
10.178;-0.01263
10.18;-0.04713
10.182;-0.05702
10.184;-0.03294
10.186;-0.05607
10.188;-0.03227
10.19;-0.01887
10.192;-0.03802
10.194;-0.03782
10.196;-0.06375
10.198;-0.00754
10.2;-0.02916
10.202;-0.05862
10.204;-0.03729
10.206;-0.01475
10.208;-0.00748
10.21;-0.06125
10.212;-0.03607
10.214;-0.00951
10.216;-0.037
10.218;-0.01592
10.22;-0.00593
10.222;-0.02258
10.224;-0.02942
10.226;-0.01293
10.228;0.00134
10.23;0.01842
10.232;0.03349
10.234;-0.01354
10.236;-0.00344
10.238;-0.02979
10.24;0.00828
10.242;0.00776
10.244;0.0349
10.246;-0.01238
10.248;0.02603
10.25;-0.01337
10.252;0.04539
10.254;0.00992
10.256;0.06904
10.258;0.0329
10.26;0.05307
10.262;0.07643
10.264;0.04887
10.266;0.05495
10.268;0.0788
10.27;0.09285
10.272;0.06679
10.274;0.09866
10.276;0.0765
10.278;0.10575
10.28;0.09801
10.282;0.11593
10.284;0.13336
10.286;0.13664
10.288;0.11868
10.29;0.12137
10.292;0.14445
10.294;0.17512
10.296;0.15004
10.298;0.16329
10.3;0.1665
10.302;0.14847
10.304;0.19485
10.306;0.16896
10.308;0.17649
10.31;0.16066
10.312;0.18549
10.314;0.19361
10.316;0.16916
10.318;0.22281
10.32;0.23593
10.322;0.19359
10.324;0.18622
10.326;0.18435
10.328;0.20678
10.33;0.2201
10.332;0.21887
10.334;0.21779
10.336;0.20199
10.338;0.22172
10.34;0.18771
10.342;0.17895
10.344;0.22649
10.346;0.19993
10.348;0.19372
10.35;0.21142
10.352;0.18518
10.354;0.17059
10.356;0.17305
10.358;0.1915
10.36;0.16996
10.362;0.15706
10.364;0.13665
10.366;0.18443
10.368;0.15505
10.37;0.1368
10.372;0.13808
10.374;0.14222
10.376;0.13299
10.378;0.08618
10.38;0.11859
10.382;0.09246
10.384;0.10784
10.386;0.09268
10.388;0.07941
10.39;0.08626
10.392;0.08303
10.394;0.066
10.396;0.05635
10.398;0.07116
10.4;0.04607
10.402;0.04034
10.404;0.06521
10.406;0.01595
10.408;0.0353
10.41;0.01514
10.412;-9e-05
10.414;0.0248
10.416;0.00867
10.418;0.00309
10.42;-0.00668
10.422;0.02463
10.424;0.00095
10.426;0.00834
10.428;-0.02954
10.43;0.01502
10.432;0.00585
10.434;-0.02526
10.436;-0.00931
10.438;-0.00861
10.44;-0.01579
10.442;-0.03659
10.444;-0.01828
10.446;-0.03485
10.448;-0.00089
10.45;0.00316
10.452;-0.0136
10.454;-0.01688
10.456;-0.01279
10.458;-0.00771
10.46;-0.02593
10.462;-0.05174
10.464;-0.03842
10.466;-0.06046
10.468;-0.05293
10.47;-0.04657
10.472;-0.04281
10.474;-0.05905
10.476;-0.00887
10.478;-0.03204
10.48;-0.04344
10.482;0.01054
10.484;-0.03548
10.486;-0.05025
10.488;-0.01338
10.49;-0.01706
10.492;-0.03873
10.494;-0.02602
10.496;-0.02661
10.498;-0.03914
10.5;-0.01477
10.502;-0.01765
10.504;-0.01194
10.506;-0.08233
10.508;-0.02639
10.51;-0.0266
10.512;-0.05627
10.514;-0.01874
10.516;-0.06192
10.518;-0.03143
10.52;-0.04191
10.522;-0.02361
10.524;-0.01526
10.526;-0.04998
10.528;-0.02991
10.53;-0.03263
10.532;-0.05776
10.534;-0.01084
10.536;-0.02307
10.538;-0.03326
10.54;-0.02059
10.542;-0.02638
10.544;-0.0405
10.546;-0.03905
10.548;-0.00898
10.55;-0.02432
10.552;-0.04194
10.554;-0.03155
10.556;-0.08008
10.558;-0.03466
10.56;-0.05365
10.562;-0.03741
10.564;-0.03793
10.566;-0.0429
10.568;-0.05569
10.57;-0.02817
10.572;-0.04992
10.574;-0.04438
10.576;-0.03062
10.578;-0.04479
10.58;-0.01143
10.582;-0.03225
10.584;-0.03339
10.586;-0.01824
10.588;-0.01918
10.59;-0.02669
10.592;-0.0385
10.594;-0.02743
10.596;-0.04511
10.598;-0.02779
10.6;-0.03668
10.602;-0.05805
10.604;-0.06484
10.606;-0.01253
10.608;-0.06967
10.61;0.00709
10.612;-0.05935
10.614;-0.03016
10.616;-0.03241
10.618;-0.03462
10.62;-0.00992
10.622;-0.0471
10.624;-0.01629
10.626;0.00584
10.628;-0.02608
10.63;-0.04728
10.632;-0.0163
10.634;-0.0251
10.636;-0.05196
10.638;-0.00738
10.64;-0.06476
10.642;-0.02448
10.644;-0.04521
10.646;5e-05
10.648;-0.02444
10.65;-0.00992
10.652;-0.05233
10.654;-0.0335
10.656;0.00587
10.658;-0.01478
10.66;-0.02739
10.662;-0.04166
10.664;0.00209
10.666;-0.03328
10.668;-0.04384
10.67;-0.01613
10.672;-0.03247
10.674;-0.03933
10.676;-0.02675
10.678;-0.00461
10.68;-0.01494
10.682;-0.0253
10.684;-0.02958
10.686;-0.01363
10.688;-0.02425
10.69;-0.00559
10.692;-0.03218
10.694;-0.04408
10.696;-0.01184
10.698;0.03059
10.7;0.01704
10.702;-0.02268
10.704;-0.01282
10.706;-0.02858
10.708;-0.02463
10.71;-0.02763
10.712;0.00775
10.714;-0.00811
10.716;-0.03775
10.718;-0.02386
10.72;-0.02049
10.722;-0.01965
10.724;0.00114
10.726;0.01921
10.728;0.01111
10.73;0.01127
10.732;0.00749
10.734;0.0206
10.736;0.05684
10.738;0.05127
10.74;0.01959
10.742;0.03344
10.744;-0.00885
10.746;0.04623
10.748;0.04461
10.75;0.04442
10.752;0.02149
10.754;0.04586
10.756;0.03663
10.758;0.06688
10.76;0.06747
10.762;0.07751
10.764;0.06247
10.766;0.02278
10.768;0.08809
10.77;0.07671
10.772;0.06399
10.774;0.06158
10.776;0.05583
10.778;0.04339
10.78;0.03426
10.782;0.06294
10.784;0.03114
10.786;0.05718
10.788;-0.00506
10.79;0.03567
10.792;-0.02025
10.794;0.05984
10.796;0.03184
10.798;0.00988
10.8;0.0065
10.802;0.02894
10.804;0.00788
10.806;-0.00096
10.808;-0.00803
10.81;0.01189
10.812;0.0018
10.814;0.01854
10.816;-0.00799
10.818;-0.00132
10.82;0.00223
10.822;0.00965
10.824;-0.00696
10.826;-0.02508
10.828;0.00234
10.83;-0.0337
10.832;0.01741
10.834;-0.02632
10.836;-0.01288
10.838;-0.03574
10.84;0.00249
10.842;-0.00115
10.844;-0.02976
10.846;-0.01473
10.848;-0.03189
10.85;0.00163
10.852;-0.00472
10.854;0.01994
10.856;-0.04885
10.858;-0.02181
10.86;-0.00051
10.862;-0.00323
10.864;0.01579
10.866;-0.00817
10.868;-0.02584
10.87;-0.00891
10.872;-0.02404
10.874;-0.03865
10.876;-0.02964
10.878;-0.01486
10.88;0.01647
10.882;-0.01701
10.884;-0.02227
10.886;-0.04389
10.888;-0.00888
10.89;-0.02667
10.892;-0.02069
10.894;0.01195
10.896;-0.03863
10.898;-0.03518
10.9;-0.04383
10.902;-0.02401
10.904;-0.03523
10.906;-0.06662
10.908;-0.0932
10.91;-0.08422
10.912;-0.06315
10.914;-0.06106
10.916;-0.04835
10.918;0.01933
10.92;0.07072
10.922;0.11579
10.924;0.16533
10.926;0.26203
10.928;0.35664
10.93;0.46294
10.932;0.56558
10.934;0.64924
10.936;0.73907
10.938;0.86388
10.94;0.89004
10.942;0.94267
10.944;0.95384
10.946;0.98621
10.948;0.95144
10.95;0.947
10.952;0.84629
10.954;0.75931
10.956;0.70337
10.958;0.53803
10.96;0.45473
10.962;0.32685
10.964;0.22264
10.966;0.13334
10.968;0.03693
10.97;-0.03042
10.972;-0.11409
10.974;-0.12813
10.976;-0.15444
10.978;-0.19845
10.98;-0.20275
10.982;-0.18524
10.984;-0.18533
10.986;-0.17705
10.988;-0.16123
10.99;-0.12232
10.992;-0.12167
10.994;-0.08905
10.996;-0.07113
10.998;-0.04152
11.0;-0.02464
11.002;-0.02837
11.004;-0.00378
11.006;-0.0179
11.008;-0.00403
11.01;-0.02285
11.012;-0.01358
11.014;-0.0007
11.016;-0.01445
11.018;0.00264
11.02;0.01157
11.022;0.01118
11.024;-0.03564
11.026;0.00174
11.028;0.03829
11.03;0.02952
11.032;-0.00804
11.034;0.01583
11.036;-0.0366
11.038;0.01939
11.04;-0.02833
11.042;-0.01751
11.044;-0.02939
11.046;0.00604
11.048;-0.01302
11.05;0.01163
11.052;0.01243
11.054;-0.01627
11.056;-0.01038
11.058;0.00416
11.06;0.03497
11.062;-0.04042
11.064;-0.03712
11.066;0.04515
11.068;0.0137
11.07;-0.03151
11.072;-0.01229
11.074;0.01568
11.076;0.02093
11.078;0.00424
11.08;-0.00197
11.082;0.01535
11.084;-0.03972
11.086;0.03185
11.088;0.02972
11.09;0.01144
11.092;0.02515
11.094;0.03144
11.096;0.034
11.098;0.03354
11.1;0.04833
11.102;0.02967
11.104;0.04747
11.106;0.07652
11.108;0.06785
11.11;0.0494
11.112;0.0877
11.114;0.05041
11.116;0.0714
11.118;0.09966
11.12;0.06854
11.122;0.07955
11.124;0.08272
11.126;0.1301
11.128;0.11971
11.13;0.09135
11.132;0.08016
11.134;0.12873
11.136;0.11709
11.138;0.12509
11.14;0.11585
11.142;0.1419
11.144;0.14141
11.146;0.13675
11.148;0.15211
11.15;0.16371
11.152;0.17631
11.154;0.15151
11.156;0.1761
11.158;0.20308
11.16;0.1877
11.162;0.18942
11.164;0.19218
11.166;0.23414
11.168;0.22561
11.17;0.20637
11.172;0.22502
11.174;0.21852
11.176;0.25125
11.178;0.23177
11.18;0.2681
11.182;0.23927
11.184;0.25413
11.186;0.28491
11.188;0.25482
11.19;0.26948
11.192;0.24838
11.194;0.24738
11.196;0.22615
11.198;0.25304
11.2;0.24958
11.202;0.27133
11.204;0.24867
11.206;0.26739
11.208;0.23509
11.21;0.27007
11.212;0.2517
11.214;0.24098
11.216;0.27644
11.218;0.25126
11.22;0.23921
11.222;0.24053
11.224;0.18421
11.226;0.21973
11.228;0.21219
11.23;0.19086
11.232;0.2085
11.234;0.21248
11.236;0.18153
11.238;0.18962
11.24;0.2122
11.242;0.19166
11.244;0.161
11.246;0.15102
11.248;0.1485
11.25;0.14773
11.252;0.14256
11.254;0.14056
11.256;0.1385
11.258;0.16576
11.26;0.12393
11.262;0.11687
11.264;0.09278
11.266;0.10782
11.268;0.10704
11.27;0.08893
11.272;0.08781
11.274;0.0792
11.276;0.08074
11.278;0.09337
11.28;0.06481
11.282;0.06214
11.284;0.05121
11.286;0.03258
11.288;0.04927
11.29;0.03616
11.292;0.05523
11.294;0.06499
11.296;0.05824
11.298;0.05014
11.3;0.02919
11.302;0.03837
11.304;0.05483
11.306;0.0695
11.308;0.01444
11.31;0.04606
11.312;0.02651
11.314;0.02793
11.316;0.06184
11.318;-0.01767
11.32;0.00487
11.322;0.01701
11.324;0.0203
11.326;0.03763
11.328;0.00343
11.33;0.00997
11.332;0.0208
11.334;0.02853
11.336;0.06286
11.338;0.02816
11.34;0.00679
11.342;0.00331
11.344;0.00458
11.346;0.00748
11.348;0.00218
11.35;0.01722
11.352;0.02462
11.354;-0.00669
11.356;-0.0082
11.358;-0.01377
11.36;-0.01896
11.362;0.00192
11.364;0.02538
11.366;0.02108
11.368;0.0419
11.37;0.0079
11.372;0.0194
11.374;0.03419
11.376;-0.01216
11.378;0.02051
11.38;0.01939
11.382;0.00204
11.384;-0.0051
11.386;0.02345
11.388;0.00206
11.39;0.00988
11.392;0.01039
11.394;0.05745
11.396;0.01009
11.398;-0.01392
11.4;0.0271
11.402;0.02714
11.404;0.00822
11.406;-0.00549
11.408;0.01974
11.41;0.01043
11.412;0.03093
11.414;-0.0056
11.416;0.03486
11.418;0.00396
11.42;0.01056
11.422;0.03207
11.424;0.00039
11.426;0.01018
11.428;-0.00809
11.43;-0.019
11.432;0.04129
11.434;0.02899
11.436;0.0055
11.438;0.00654
11.44;0.01518
11.442;-0.00252
11.444;0.0182
11.446;0.04113
11.448;0.03053
11.45;0.01203
11.452;-0.01301
11.454;0.02372
11.456;0.00179
11.458;0.00205
11.46;0.0006
11.462;0.04989
11.464;0.03762
11.466;-0.00488
11.468;0.02283
11.47;-0.01332
11.472;0.0269
11.474;0.03811
11.476;0.03745
11.478;0.01312
11.48;0.02748
11.482;0.0411
11.484;0.0414
11.486;0.06291
11.488;0.02179
11.49;0.02903
11.492;0.01212
11.494;0.02413
11.496;0.00171
11.498;0.03818
11.5;0.02605
11.502;0.02797
11.504;0.012
11.506;0.0232
11.508;0.04423
11.51;0.03251
11.512;0.03734
11.514;0.03168
11.516;0.03611
11.518;0.03121
11.52;0.07601
11.522;0.06513
11.524;0.06271
11.526;-0.00027
11.528;0.01273
11.53;0.07691
11.532;0.04392
11.534;0.03408
11.536;0.06936
11.538;0.07965
11.54;0.07567
11.542;0.06653
11.544;0.09064
11.546;0.08571
11.548;0.10364
11.55;0.09665
11.552;0.10285
11.554;0.08429
11.556;0.10145
11.558;0.13132
11.56;0.13945
11.562;0.08642
11.564;0.07744
11.566;0.08416
11.568;0.09175
11.57;0.11562
11.572;0.08591
11.574;0.08853
11.576;0.07761
11.578;0.09336
11.58;0.09448
11.582;0.06664
11.584;0.07843
11.586;0.1006
11.588;0.04589
11.59;0.0516
11.592;0.09819
11.594;0.06475
11.596;0.05522
11.598;0.07085
11.6;0.05875
11.602;0.04833
11.604;0.0362
11.606;0.06316
11.608;0.05441
11.61;0.03425
11.612;0.0132
11.614;0.02106
11.616;0.03227
11.618;0.04102
11.62;0.01178
11.622;0.06598
11.624;0.01964
11.626;0.02853
11.628;0.00684
11.63;0.05041
11.632;0.05871
11.634;0.01868
11.636;0.03288
11.638;0.06322
11.64;0.03437
11.642;0.02465
11.644;0.05115
11.646;0.03379
11.648;0.03983
11.65;0.04397
11.652;0.00824
11.654;0.02189
11.656;0.00578
11.658;0.03836
11.66;0.00273
11.662;0.06212
11.664;0.05976
11.666;0.01614
11.668;0.0032
11.67;0.0265
11.672;0.05049
11.674;0.03076
11.676;0.04431
11.678;0.00173
11.68;0.02371
11.682;0.00873
11.684;0.03878
11.686;0.0395
11.688;0.00344
11.69;0.04196
11.692;0.02698
11.694;0.02475
11.696;-0.00431
11.698;0.0141
11.7;-0.0001
11.702;0.00365
11.704;-0.02207
11.706;-0.02304
11.708;-0.00705
11.71;-0.062
11.712;-0.05949
11.714;-0.01741
11.716;0.0107
11.718;0.10443
11.72;0.13062
11.722;0.21633
11.724;0.29956
11.726;0.35441
11.728;0.46338
11.73;0.57303
11.732;0.6407
11.734;0.73487
11.736;0.8475
11.738;0.92835
11.74;0.97779
11.742;0.99492
11.744;1.03456
11.746;1.02494
11.748;0.98618
11.75;0.91197
11.752;0.82458
11.754;0.73833
11.756;0.6186
11.758;0.50343
11.76;0.40596
11.762;0.31091
11.764;0.19459
11.766;0.09263
11.768;-0.01823
11.77;-0.07006
11.772;-0.12337
11.774;-0.13268
11.776;-0.16998
11.778;-0.18005
11.78;-0.19249
11.782;-0.15757
11.784;-0.168
11.786;-0.11624
11.788;-0.06697
11.79;-0.08661
11.792;-0.04989
11.794;-0.03154
11.796;-0.01004
11.798;-0.01264
11.8;0.03536
11.802;0.00491
11.804;0.01679
11.806;0.01393
11.808;0.02879
11.81;0.0458
11.812;0.03079
11.814;0.04978
11.816;0.03433
11.818;0.06101
11.82;0.03242
11.822;0.03412
11.824;0.0298
11.826;0.05351
11.828;0.00659
11.83;0.04566
11.832;0.05807
11.834;0.00719
11.836;0.06604
11.838;0.08296
11.84;0.01276
11.842;0.06632
11.844;0.03362
11.846;0.02978
11.848;0.04485
11.85;0.03594
11.852;0.04724
11.854;0.0498
11.856;0.02347
11.858;0.03204
11.86;0.06552
11.862;0.02994
11.864;0.05273
11.866;0.02031
11.868;0.06093
11.87;0.03783
11.872;0.02698
11.874;0.04941
11.876;0.05448
11.878;0.03398
11.88;0.02195
11.882;0.05588
11.884;0.05367
11.886;0.05188
11.888;0.05482
11.89;0.06972
11.892;0.08205
11.894;0.07266
11.896;0.0897
11.898;0.04501
11.9;0.07024
11.902;0.01623
11.904;0.10038
11.906;0.0912
11.908;0.11623
11.91;0.08715
11.912;0.12877
11.914;0.11389
11.916;0.10573
11.918;0.08451
11.92;0.13321
11.922;0.12286
11.924;0.13745
11.926;0.16376
11.928;0.18382
11.93;0.14938
11.932;0.20499
11.934;0.14244
11.936;0.18479
11.938;0.16004
11.94;0.17658
11.942;0.18657
11.944;0.17022
11.946;0.23602
11.948;0.20553
11.95;0.20664
11.952;0.23177
11.954;0.24354
11.956;0.228
11.958;0.22421
11.96;0.26533
11.962;0.25285
11.964;0.25506
11.966;0.24639
11.968;0.23649
11.97;0.25916
11.972;0.27219
11.974;0.2717
11.976;0.30074
11.978;0.29198
11.98;0.30853
11.982;0.26401
11.984;0.29425
11.986;0.31711
11.988;0.29266
11.99;0.30835
11.992;0.29021
11.994;0.2919
11.996;0.29302
11.998;0.26582
12.0;0.31345
12.002;0.29468
12.004;0.29825
12.006;0.30627
12.008;0.2407
12.01;0.28016
12.012;0.23463
12.014;0.25278
12.016;0.2482
12.018;0.2127
12.02;0.23323
12.022;0.26413
12.024;0.29263
12.026;0.21785
12.028;0.2078
12.03;0.2483
12.032;0.23116
12.034;0.19174
12.036;0.21629
12.038;0.19817
12.04;0.20421
12.042;0.23632
12.044;0.20081
12.046;0.19254
12.048;0.17686
12.05;0.18073
12.052;0.19068
12.054;0.16545
12.056;0.17137
12.058;0.15764
12.06;0.16871
12.062;0.14663
12.064;0.13825
12.066;0.13056
12.068;0.13326
12.07;0.13192
12.072;0.11798
12.074;0.10007
12.076;0.13971
12.078;0.12423
12.08;0.10287
12.082;0.07412
12.084;0.10537
12.086;0.12022
12.088;0.08884
12.09;0.06517
12.092;0.04434
12.094;0.0543
12.096;0.0853
12.098;0.07288
12.1;0.06692
12.102;0.0703
12.104;0.06734
12.106;0.04178
12.108;0.06314
12.11;0.0715
12.112;0.04499
12.114;0.06761
12.116;0.05882
12.118;0.05793
12.12;0.06723
12.122;0.05675
12.124;0.06141
12.126;0.06949
12.128;0.03643
12.13;0.08025
12.132;0.05547
12.134;0.05656
12.136;0.05879
12.138;0.03693
12.14;0.03931
12.142;0.05809
12.144;0.07733
12.146;0.02751
12.148;0.04512
12.15;0.06039
12.152;0.0658
12.154;0.04723
12.156;0.03298
12.158;0.05534
12.16;0.04467
12.162;0.03296
12.164;0.06464
12.166;0.07599
12.168;0.06933
12.17;0.0778
12.172;0.07066
12.174;0.04228
12.176;0.07436
12.178;0.06148
12.18;0.04498
12.182;0.00655
12.184;0.05061
12.186;0.06159
12.188;0.04998
12.19;0.0315
12.192;0.08354
12.194;0.04357
12.196;0.0342
12.198;0.05659
12.2;0.03295
12.202;0.05892
12.204;0.05305
12.206;0.03793
12.208;0.05236
12.21;0.04662
12.212;0.02029
12.214;0.05824
12.216;0.04725
12.218;0.02109
12.22;0.06243
12.222;0.0226
12.224;0.04889
12.226;0.05364
12.228;0.04252
12.23;0.04514
12.232;0.03989
12.234;0.02207
12.236;0.06851
12.238;0.04586
12.24;0.0533
12.242;0.06119
12.244;0.05191
12.246;0.03885
12.248;0.037
12.25;0.03544
12.252;0.02473
12.254;0.05075
12.256;0.02865
12.258;0.04654
12.26;0.0425
12.262;0.04803
12.264;0.01976
12.266;0.0425
12.268;0.06929
12.27;0.09384
12.272;0.04955
12.274;0.01846
12.276;0.08953
12.278;0.02411
12.28;0.06575
12.282;0.05884
12.284;0.05622
12.286;0.06509
12.288;-0.00869
12.29;0.03319
12.292;0.06949
12.294;0.02677
12.296;0.06748
12.298;0.07397
12.3;0.03033
12.302;0.06095
12.304;0.06954
12.306;0.07286
12.308;0.02991
12.31;0.03552
12.312;0.05407
12.314;0.05874
12.316;0.07567
12.318;0.0342
12.32;0.04093
12.322;0.06696
12.324;0.04995
12.326;0.05684
12.328;0.04823
12.33;0.04605
12.332;0.06179
12.334;0.07856
12.336;0.03342
12.338;0.06067
12.34;0.04756
12.342;0.04279
12.344;0.04288
12.346;0.0523
12.348;0.07971
12.35;0.05717
12.352;0.04426
12.354;0.05245
12.356;0.04035
12.358;0.04037
12.36;0.06072
12.362;0.07597
12.364;0.05504
12.366;0.01446
12.368;0.0441
12.37;0.07151
12.372;0.04736
12.374;0.04835
12.376;0.09272
12.378;0.05198
12.38;0.07112
12.382;0.07512
12.384;0.03737
12.386;0.05255
12.388;0.07233
12.39;0.05628
12.392;0.08094
12.394;0.09255
12.396;0.04953
12.398;0.08314
12.4;0.09354
12.402;0.08729
12.404;0.06484
12.406;0.11015
12.408;0.09563
12.41;0.13123
12.412;0.1198
12.414;0.09554
12.416;0.1271
12.418;0.13003
12.42;0.13149
12.422;0.13434
12.424;0.12891
12.426;0.13355
12.428;0.1398
12.43;0.11861
12.432;0.11433
12.434;0.11949
12.436;0.09112
12.438;0.08751
12.44;0.11869
12.442;0.12116
12.444;0.09398
12.446;0.06735
12.448;0.13839
12.45;0.1211
12.452;0.09944
12.454;0.12225
12.456;0.084
12.458;0.06769
12.46;0.11812
12.462;0.08567
12.464;0.0967
12.466;0.04057
12.468;0.03456
12.47;0.06018
12.472;0.09129
12.474;0.06111
12.476;0.07473
12.478;0.07429
12.48;0.07465
12.482;0.05885
12.484;0.08343
12.486;0.07268
12.488;0.05192
12.49;0.04052
12.492;0.09742
12.494;0.04988
12.496;0.03864
12.498;0.03969
12.5;0.07071
12.502;0.07366
12.504;0.03285
12.506;0.06186
12.508;0.0572
12.51;0.06707
12.512;0.05866
12.514;0.04142
12.516;0.07126
12.518;0.04254
12.52;0.03366
12.522;0.05089
12.524;0.04267
12.526;0.04571
12.528;0.02295
12.53;0.05235
12.532;0.05815
12.534;0.04422
12.536;0.07422
12.538;0.01152
12.54;0.06632
12.542;0.04938
12.544;0.04547
12.546;0.02521
12.548;0.04217
12.55;0.05032
12.552;0.06747
12.554;0.03896
12.556;0.04901
12.558;0.01926
12.56;0.03952
12.562;0.0048
12.564;0.00449
12.566;0.00291
12.568;0.00968
12.57;0.01672
12.572;-0.022
12.574;0.00272
12.576;-0.0087
12.578;0.02045
12.58;0.08279
12.582;0.14786
12.584;0.22616
12.586;0.29266
12.588;0.37815
12.59;0.46347
12.592;0.6035
12.594;0.6482
12.596;0.75525
12.598;0.88337
12.6;0.91767
12.602;0.9959
12.604;1.01939
12.606;1.04827
12.608;1.01987
12.61;0.96068
12.612;0.92828
12.614;0.84941
12.616;0.74222
12.618;0.68122
12.62;0.5432
12.622;0.42505
12.624;0.36797
12.626;0.24022
12.628;0.14414
12.63;0.04523
12.632;-0.01707
12.634;-0.09346
12.636;-0.09938
12.638;-0.1281
12.64;-0.17124
12.642;-0.13719
12.644;-0.13685
12.646;-0.11436
12.648;-0.08984
12.65;-0.08462
12.652;-0.06727
12.654;-0.044
12.656;-0.02337
12.658;-0.0217
12.66;0.01259
12.662;0.0189
12.664;0.03187
12.666;0.01914
12.668;0.05762
12.67;0.0607
12.672;0.08043
12.674;0.02051
12.676;0.04382
12.678;0.04407
12.68;0.05052
12.682;0.06368
12.684;0.08104
12.686;0.05774
12.688;0.03455
12.69;0.05233
12.692;0.07971
12.694;0.07051
12.696;0.05359
12.698;0.06349
12.7;0.05586
12.702;0.04936
12.704;0.05561
12.706;0.05775
12.708;0.06692
12.71;0.04494
12.712;0.02398
12.714;0.03316
12.716;0.03293
12.718;0.05129
12.72;0.06564
12.722;0.06427
12.724;0.06649
12.726;0.02582
12.728;0.07231
12.73;0.02977
12.732;0.05449
12.734;0.04031
12.736;0.05133
12.738;0.06717
12.74;0.08706
12.742;0.07624
12.744;0.08715
12.746;0.09121
12.748;0.07564
12.75;0.0826
12.752;0.08595
12.754;0.11359
12.756;0.043
12.758;0.08163
12.76;0.0874
12.762;0.10736
12.764;0.09356
12.766;0.09281
12.768;0.10266
12.77;0.05606
12.772;0.13611
12.774;0.10588
12.776;0.08274
12.778;0.08322
12.78;0.11882
12.782;0.11591
12.784;0.12771
12.786;0.14756
12.788;0.13843
12.79;0.12213
12.792;0.18465
12.794;0.1918
12.796;0.19093
12.798;0.17483
12.8;0.16594
12.802;0.18197
12.804;0.1984
12.806;0.20808
12.808;0.19982
12.81;0.17395
12.812;0.19177
12.814;0.21412
12.816;0.23683
12.818;0.23128
12.82;0.24584
12.822;0.24243
12.824;0.23864
12.826;0.24978
12.828;0.25659
12.83;0.28847
12.832;0.26936
12.834;0.30147
12.836;0.25077
12.838;0.25997
12.84;0.26934
12.842;0.28141
12.844;0.30394
12.846;0.30871
12.848;0.29631
12.85;0.28378
12.852;0.29428
12.854;0.25937
12.856;0.31085
12.858;0.2913
12.86;0.28445
12.862;0.29062
12.864;0.27899
12.866;0.30238
12.868;0.29016
12.87;0.26344
12.872;0.24689
12.874;0.27845
12.876;0.2603
12.878;0.2411
12.88;0.28586
12.882;0.27151
12.884;0.24715
12.886;0.2571
12.888;0.24161
12.89;0.23688
12.892;0.23142
12.894;0.24479
12.896;0.20118
12.898;0.22822
12.9;0.23747
12.902;0.20401
12.904;0.20371
12.906;0.19459
12.908;0.19914
12.91;0.20415
12.912;0.18067
12.914;0.15509
12.916;0.15086
12.918;0.17472
12.92;0.16862
12.922;0.20339
12.924;0.16093
12.926;0.18333
12.928;0.13155
12.93;0.12379
12.932;0.07989
12.934;0.09339
12.936;0.12792
12.938;0.09044
12.94;0.0598
12.942;0.09455
12.944;0.11991
12.946;0.11143
12.948;0.09489
12.95;0.05548
12.952;0.06905
12.954;0.07584
12.956;0.07673
12.958;0.10032
12.96;0.07443
12.962;0.08443
12.964;0.07361
12.966;0.1057
12.968;0.0908
12.97;0.06532
12.972;0.02761
12.974;0.08688
12.976;0.07071
12.978;0.02727
12.98;0.04105
12.982;0.06542
12.984;0.06414
12.986;0.04552
12.988;0.05975
12.99;0.01388
12.992;0.06405
12.994;0.05081
12.996;0.01744
12.998;0.08027
13.0;0.02764
13.002;0.05609
13.004;0.02267
13.006;0.03128
13.008;0.03985
13.01;0.04423
13.012;0.04452
13.014;0.04403
13.016;0.00976
13.018;0.00139
13.02;0.05316
13.022;0.03675
13.024;0.05261
13.026;0.03323
13.028;0.02882
13.03;0.03302
13.032;0.01689
13.034;0.04319
13.036;0.05743
13.038;0.04039
13.04;0.02435
13.042;0.06792
13.044;0.06263
13.046;0.03877
13.048;0.02651
13.05;0.03966
13.052;0.01521
13.054;0.04613
13.056;0.02973
13.058;0.0334
13.06;0.03263
13.062;0.0293
13.064;0.04754
13.066;0.02896
13.068;0.03149
13.07;0.03768
13.072;0.05975
13.074;0.03721
13.076;0.04887
13.078;0.04293
13.08;0.07523
13.082;0.05348
13.084;0.05724
13.086;0.0497
13.088;0.03591
13.09;0.05205
13.092;0.02057
13.094;0.01057
13.096;0.03282
13.098;0.03013
13.1;0.0114
13.102;0.04194
13.104;0.02522
13.106;0.01524
13.108;0.0728
13.11;0.03314
13.112;0.06392
13.114;0.02955
13.116;0.02826
13.118;0.06546
13.12;0.03135
13.122;0.00377
13.124;0.00046
13.126;0.02198
13.128;0.03474
13.13;0.02311
13.132;0.09376
13.134;0.01623
13.136;0.00214
13.138;0.02298
13.14;0.0343
13.142;0.02981
13.144;0.00812
13.146;0.04945
13.148;0.0231
13.15;0.0466
13.152;0.03956
13.154;0.03165
13.156;0.03508
13.158;0.062
13.16;0.02465
13.162;0.03998
13.164;0.01415
13.166;0.02663
13.168;0.02871
13.17;0.0449
13.172;0.02339
13.174;0.05234
13.176;0.0243
13.178;0.03688
13.18;0.02843
13.182;0.05968
13.184;0.06311
13.186;0.04719
13.188;0.07258
13.19;0.05203
13.192;0.08138
13.194;0.0514
13.196;0.09071
13.198;0.06833
13.2;0.09377
13.202;0.09269
13.204;0.09511
13.206;0.0651
13.208;0.06931
13.21;0.0836
13.212;0.06972
13.214;0.08869
13.216;0.12798
13.218;0.1202
13.22;0.09212
13.222;0.08215
13.224;0.1253
13.226;0.10952
13.228;0.13794
13.23;0.11566
13.232;0.10802
13.234;0.12098
13.236;0.09852
13.238;0.08509
13.24;0.04783
13.242;0.08974
13.244;0.07661
13.246;0.09376
13.248;0.08988
13.25;0.10962
13.252;0.06506
13.254;0.1129
13.256;0.08993
13.258;0.07726
13.26;0.04303
13.262;0.08249
13.264;0.05575
13.266;0.09165
13.268;0.06781
13.27;0.05421
13.272;0.05662
13.274;0.01876
13.276;0.05488
13.278;0.05887
13.28;0.03459
13.282;0.08562
13.284;0.00953
13.286;0.03769
13.288;0.00224
13.29;0.03839
13.292;0.01937
13.294;0.04297
13.296;0.01005
13.298;0.04527
13.3;0.01906
13.302;0.03091
13.304;0.02656
13.306;0.00318
13.308;0.03242
13.31;0.01982
13.312;0.06208
13.314;0.03592
13.316;0.0351
13.318;0.03064
13.32;0.02377
13.322;0.01049
13.324;0.04836
13.326;0.01149
13.328;0.02316
13.33;0.03782
13.332;0.01796
13.334;0.03592
13.336;0.04374
13.338;0.01383
13.34;0.01767
13.342;0.04344
13.344;0.04484
13.346;0.03706
13.348;0.05275
13.35;0.00144
13.352;0.01724
13.354;0.0376
13.356;0.03147
13.358;0.0118
13.36;0.04871
13.362;-0.01164
13.364;0.00964
13.366;-0.04724
13.368;-0.01425
13.37;0.00507
13.372;0.0209
13.374;-0.05673
13.376;0.01437
13.378;-0.01189
13.38;-0.03048
13.382;0.09329
13.384;0.12337
13.386;0.1923
13.388;0.26159
13.39;0.34852
13.392;0.44218
13.394;0.55527
13.396;0.63477
13.398;0.73796
13.4;0.81279
13.402;0.90824
13.404;0.97365
13.406;0.9918
13.408;1.01074
13.41;1.02244
13.412;0.97802
13.414;0.91109
13.416;0.8623
13.418;0.76733
13.42;0.67627
13.422;0.5462
13.424;0.44202
13.426;0.36039
13.428;0.19477
13.43;0.12548
13.432;-0.00743
13.434;-0.02862
13.436;-0.10486
13.438;-0.13559
13.44;-0.16497
13.442;-0.14406
13.444;-0.17456
13.446;-0.15911
13.448;-0.1496
13.45;-0.12499
13.452;-0.05793
13.454;-0.07146
13.456;-0.05571
13.458;-0.09012
13.46;-0.0321
13.462;-0.02915
13.464;-0.01433
13.466;0.01558
13.468;0.00172
13.47;0.01359
13.472;0.00571
13.474;-0.02987
13.476;-0.02363
13.478;0.01645
13.48;0.01241
13.482;0.00301
13.484;0.01203
13.486;0.01403
13.488;0.01319
13.49;0.02494
13.492;0.00544
13.494;0.04204
13.496;0.02549
13.498;0.03282
13.5;-0.0017
13.502;-0.00597
13.504;-0.00335
13.506;-0.01085
13.508;0.02314
13.51;0.03427
13.512;0.01944
13.514;0.01485
13.516;0.0153
13.518;0.06394
13.52;0.01681
13.522;0.03784
13.524;0.02283
13.526;0.06312
13.528;0.01964
13.53;0.01843
13.532;0.03302
13.534;0.03356
13.536;0.00481
13.538;0.03751
13.54;0.03847
13.542;0.06098
13.544;0.03613
13.546;0.03023
13.548;0.01691
13.55;0.06228
13.552;0.06158
13.554;0.08162
13.556;0.04651
13.558;0.0469
13.56;0.03138
13.562;0.0384
13.564;0.0386
13.566;0.05863
13.568;0.05424
13.57;0.06903
13.572;0.0601
13.574;0.09685
13.576;0.0693
13.578;0.06649
13.58;0.07086
13.582;0.05276
13.584;0.10166
13.586;0.11391
13.588;0.12194
13.59;0.11258
13.592;0.11203
13.594;0.11734
13.596;0.11727
13.598;0.11024
13.6;0.11626
13.602;0.14169
13.604;0.13515
13.606;0.16253
13.608;0.16097
13.61;0.17453
13.612;0.20605
13.614;0.18719
13.616;0.16754
13.618;0.16322
13.62;0.2238
13.622;0.2102
13.624;0.21893
13.626;0.23595
13.628;0.25181
13.63;0.23593
13.632;0.21995
13.634;0.21925
13.636;0.20527
13.638;0.25077
13.64;0.25912
13.642;0.25254
13.644;0.2643
13.646;0.214
13.648;0.2697
13.65;0.25495
13.652;0.28879
13.654;0.2368
13.656;0.25309
13.658;0.25714
13.66;0.24476
13.662;0.28117
13.664;0.27717
13.666;0.27705
13.668;0.25021
13.67;0.26226
13.672;0.26368
13.674;0.24356
13.676;0.25975
13.678;0.23406
13.68;0.22358
13.682;0.23482
13.684;0.22479
13.686;0.20609
13.688;0.22149
13.69;0.19299
13.692;0.22858
13.694;0.19156
13.696;0.19337
13.698;0.19294
13.7;0.22313
13.702;0.15394
13.704;0.18495
13.706;0.17678
13.708;0.16534
13.71;0.16287
13.712;0.1359
13.714;0.15715
13.716;0.1649
13.718;0.16622
13.72;0.1253
13.722;0.12739
13.724;0.15024
13.726;0.15055
13.728;0.11801
13.73;0.12111
13.732;0.09707
13.734;0.10416
13.736;0.08087
13.738;0.05666
13.74;0.11872
13.742;0.06626
13.744;0.07061
13.746;0.08971
13.748;0.09452
13.75;0.05126
13.752;0.06522
13.754;-0.00086
13.756;0.01154
13.758;0.03164
13.76;0.08121
13.762;0.05595
13.764;0.0376
13.766;0.05474
13.768;0.02588
13.77;0.02956
13.772;0.04327
13.774;0.05372
13.776;-0.01256
13.778;0.04438
13.78;0.005
13.782;0.01177
13.784;0.02668
13.786;0.01963
13.788;0.03154
13.79;0.00399
13.792;-0.00685
13.794;-0.0133
13.796;0.00881
13.798;0.01821
13.8;-0.01815
13.802;0.00797
13.804;0.02421
13.806;-0.00561
13.808;-0.00045
13.81;0.0036
13.812;0.00257
13.814;-0.03619
13.816;-0.01446
13.818;0.0142
13.82;-0.0058
13.822;0.00444
13.824;0.00102
13.826;0.0071
13.828;0.02365
13.83;-0.00408
13.832;0.02218
13.834;0.01638
13.836;-0.01526
13.838;0.0124
13.84;-0.00211
13.842;0.02476
13.844;0.01443
13.846;-0.00714
13.848;0.02632
13.85;-0.00483
13.852;-0.00194
13.854;-0.00765
13.856;-0.00564
13.858;-0.01855
13.86;-0.00979
13.862;-0.00646
13.864;0.01904
13.866;-0.00369
13.868;0.0298
13.87;-0.0395
13.872;-0.00808
13.874;-0.0091
13.876;0.03232
13.878;0.03405
13.88;0.00793
13.882;0.00802
13.884;0.0348
13.886;-0.00346
13.888;-0.00934
13.89;-0.03003
13.892;0.01487
13.894;-0.01557
13.896;0.05158
13.898;0.00972
13.9;0.02452
13.902;-0.00943
13.904;0.01402
13.906;0.00331
13.908;0.00862
13.91;-0.01555
13.912;0.0128
13.914;0.02503
13.916;-0.00925
13.918;-0.02303
13.92;-0.03624
13.922;0.00068
13.924;-0.00153
13.926;0.00718
13.928;-0.00912
13.93;-0.03271
13.932;-0.02177
13.934;0.01471
13.936;-0.02566
13.938;-0.00945
13.94;0.0263
13.942;-0.01306
13.944;-0.00104
13.946;0.00924
13.948;-0.01368
13.95;0.01303
13.952;-0.00093
13.954;-0.00821
13.956;0.004
13.958;-0.01783
13.96;-0.00455
13.962;0.01651
13.964;0.00109
13.966;0.0018
13.968;0.01054
13.97;0.00589
13.972;-0.00584
13.974;-0.02985
13.976;-0.00612
13.978;-0.01143
13.98;-0.01613
13.982;-0.00199
13.984;-0.0301
13.986;-0.03624
13.988;0.03066
13.99;0.00324
13.992;-0.01872
13.994;0.01425
13.996;0.00139
13.998;0.00647
14.0;0.01583
14.002;-0.00687
14.004;0.03947
14.006;-0.00168
14.008;-0.0399
14.01;-0.01716
14.012;-0.01832
14.014;-0.02586
14.016;-0.03412
14.018;0.01346
14.02;0.00118
14.022;-0.00071
14.024;-0.01115
14.026;-0.01297
14.028;0.01223
14.03;-0.00771
14.032;0.01895
14.034;-0.01257
14.036;0.0029
14.038;-0.02647
14.04;-0.04552
14.042;0.03689
14.044;0.00337
14.046;0.00697
14.048;0.00547
14.05;0.01642
14.052;0.00914
14.054;0.04086
14.056;0.05004
14.058;0.02631
14.06;0.03918
14.062;0.03946
14.064;0.05836
14.066;0.0527
14.068;0.02802
14.07;0.02965
14.072;0.04569
14.074;0.06611
14.076;0.04587
14.078;0.06587
14.08;0.06512
14.082;0.051
14.084;0.06107
14.086;0.0496
14.088;0.06628
14.09;0.08026
14.092;0.06028
14.094;0.05847
14.096;0.03318
14.098;0.07625
14.1;0.05527
14.102;0.05996
14.104;0.07088
14.106;0.07651
14.108;0.07289
14.11;0.0422
14.112;0.07116
14.114;0.02689
14.116;0.04825
14.118;0.03109
14.12;0.00836
14.122;0.02846
14.124;0.00864
14.126;0.00432
14.128;0.02364
14.13;0.00743
14.132;-0.00154
14.134;-0.01655
14.136;0.00917
14.138;-0.0073
14.14;-0.01488
14.142;-0.00624
14.144;-0.00706
14.146;-0.04107
14.148;0.01589
14.15;-0.0153
14.152;0.00775
14.154;-0.01126
14.156;-0.00254
14.158;0.01486
14.16;0.00408
14.162;-0.03201
14.164;-0.00764
14.166;-0.00666
14.168;0.01657
14.17;-0.00036
14.172;-0.02117
14.174;-0.0255
14.176;-0.00301
14.178;-0.04019
14.18;-0.05271
14.182;0.00125
14.184;0.00916
14.186;-0.02975
14.188;-0.01327
14.19;-0.01967
14.192;-0.0577
14.194;0.01423
14.196;0.0104
14.198;-0.02072
14.2;-0.00429
14.202;-0.02881
14.204;0.0007
14.206;-0.01303
14.208;-0.04382
14.21;-0.00735
14.212;-0.01369
14.214;-0.00921
14.216;-0.0347
14.218;-0.02286
14.22;0.01045
14.222;-0.01935
14.224;-0.04348
14.226;-0.04704
14.228;-0.05199
14.23;-0.07848
14.232;-0.09331
14.234;-0.086
14.236;-0.09078
14.238;-0.05485
14.24;-0.05363
14.242;-0.00164
14.244;0.03156
14.246;0.0822
14.248;0.18283
14.25;0.29608
14.252;0.34177
14.254;0.46952
14.256;0.55317
14.258;0.68271
14.26;0.74647
14.262;0.82323
14.264;0.88313
14.266;0.95719
14.268;0.97409
14.27;0.96095
14.272;0.95166
14.274;0.88662
14.276;0.81048
14.278;0.72008
14.28;0.63006
14.282;0.49748
14.284;0.41481
14.286;0.27958
14.288;0.18198
14.29;0.09665
14.292;0.00916
14.294;-0.05784
14.296;-0.13492
14.298;-0.2136
14.3;-0.20834
14.302;-0.22504
14.304;-0.2425
14.306;-0.24308
14.308;-0.18934
14.31;-0.14473
14.312;-0.13287
14.314;-0.1255
14.316;-0.09348
14.318;-0.09006
14.32;-0.09481
14.322;-0.07926
14.324;-0.03818
14.326;-0.03431
14.328;-0.05337
14.33;-0.00602
14.332;-0.01208
14.334;-0.03821
14.336;-0.03548
14.338;-0.01606
14.34;-0.03442
14.342;-0.05706
14.344;-0.02672
14.346;-0.01984
14.348;-0.01525
14.35;-0.05497
14.352;-0.01041
14.354;-0.04746
14.356;-0.06247
14.358;-0.03297
14.36;-0.0449
14.362;-0.02499
14.364;-0.02162
14.366;-0.05393
14.368;-0.01658
14.37;0.01342
14.372;-0.04131
14.374;-0.04466
14.376;-0.03568
14.378;-0.0017
14.38;-0.03108
14.382;0.00199
14.384;-0.00529
14.386;-0.016
14.388;0.01123
14.39;0.0242
14.392;-0.02981
14.394;0.00422
14.396;-0.03099
14.398;-0.03744
14.4;-0.029
14.402;-0.00527
14.404;-0.01056
14.406;-0.00149
14.408;-0.00625
14.41;-0.02051
14.412;-0.01871
14.414;0.02955
14.416;0.03178
14.418;0.02218
14.42;-0.00353
14.422;-0.0163
14.424;0.01352
14.426;0.01175
14.428;0.03482
14.43;0.01696
14.432;0.06611
14.434;0.02965
14.436;0.05073
14.438;0.02332
14.44;0.02878
14.442;0.06385
14.444;0.06678
14.446;0.03484
14.448;0.06349
14.45;0.06463
14.452;0.07661
14.454;0.08394
14.456;0.08716
14.458;0.06144
14.46;0.07226
14.462;0.11523
14.464;0.10255
14.466;0.09511
14.468;0.14194
14.47;0.1078
14.472;0.11496
14.474;0.12775
14.476;0.11403
14.478;0.13634
14.48;0.14137
14.482;0.16254
14.484;0.16299
14.486;0.16171
14.488;0.20714
14.49;0.19871
14.492;0.18677
14.494;0.18646
14.496;0.20199
14.498;0.19677
14.5;0.19285
14.502;0.21256
14.504;0.22697
14.506;0.18398
14.508;0.19235
14.51;0.20398
14.512;0.23197
14.514;0.23232
14.516;0.20936
14.518;0.2328
14.52;0.21558
14.522;0.23875
14.524;0.21024
14.526;0.21627
14.528;0.22271
14.53;0.19926
14.532;0.18808
14.534;0.22078
14.536;0.21086
14.538;0.20901
14.54;0.21676
14.542;0.22518
14.544;0.17931
14.546;0.19855
14.548;0.16077
14.55;0.20934
14.552;0.15108
14.554;0.16595
14.556;0.15307
14.558;0.14701
14.56;0.15443
14.562;0.15253
14.564;0.15634
14.566;0.11861
14.568;0.11778
14.57;0.11842
14.572;0.08332
14.574;0.08374
14.576;0.10938
14.578;0.08463
14.58;0.07429
14.582;0.06871
14.584;0.05311
14.586;0.11272
14.588;0.096
14.59;0.08718
14.592;0.04816
14.594;0.03613
14.596;0.04361
14.598;0.02779
14.6;0.02641
14.602;0.05339
14.604;0.02283
14.606;0.03085
14.608;0.03759
14.61;-0.01159
14.612;-0.0075
14.614;-0.01597
14.616;0.0009
14.618;0.00512
14.62;0.02488
14.622;-0.00082
14.624;-0.00699
14.626;-0.02452
14.628;0.00498
14.63;-0.04245
14.632;-0.01982
14.634;-0.02229
14.636;-0.03551
14.638;-0.00971
14.64;-0.01344
14.642;-0.0293
14.644;-0.05273
14.646;-0.01984
14.648;-0.02511
14.65;-0.03059
14.652;-0.02652
14.654;-0.03894
14.656;-0.0152
14.658;-0.04521
14.66;-0.00966
14.662;-0.02408
14.664;-0.03688
14.666;-0.02642
14.668;-0.08464
14.67;0.0096
14.672;-0.02736
14.674;-0.01063
14.676;-0.01648
14.678;-0.03017
14.68;-0.05844
14.682;-0.02039
14.684;-0.08568
14.686;-0.02669
14.688;-0.05846
14.69;-0.04014
14.692;-0.05144
14.694;-0.0285
14.696;-0.04627
14.698;-0.05368
14.7;-0.04581
14.702;-0.02719
14.704;-0.03403
14.706;-0.06161
14.708;-0.06474
14.71;-0.02873
14.712;-0.03223
14.714;-0.02106
14.716;-0.04473
14.718;-0.04078
14.72;-0.03223
14.722;-0.05325
14.724;-0.03218
14.726;-0.06241
14.728;-0.06519
14.73;-0.05925
14.732;-0.06002
14.734;-0.04167
14.736;-0.03217
14.738;-0.01447
14.74;-0.05296
14.742;-0.03528
14.744;-0.03229
14.746;-0.02818
14.748;-0.07056
14.75;-0.0307
14.752;-0.02053
14.754;-0.08217
14.756;-0.04559
14.758;-0.04357
14.76;-0.05732
14.762;-0.04409
14.764;-0.02844
14.766;-0.04667
14.768;-0.04578
14.77;-0.05441
14.772;-0.0398
14.774;-0.06982
14.776;-0.04212
14.778;-0.02571
14.78;-0.05305
14.782;-0.05375
14.784;-0.08785
14.786;-0.04131
14.788;-0.03179
14.79;-0.04075
14.792;-0.07249
14.794;-0.01897
14.796;-0.06357
14.798;-0.03345
14.8;-0.06393
14.802;-0.05172
14.804;-0.06238
14.806;-0.03473
14.808;-0.00541
14.81;-0.04438
14.812;-0.05342
14.814;-0.05788
14.816;-0.05387
14.818;-0.03632
14.82;-0.04308
14.822;-0.06127
14.824;-0.04128
14.826;-0.06042
14.828;-0.03249
14.83;-0.0417
14.832;-0.03729
14.834;-0.04617
14.836;-0.0297
14.838;-0.01738
14.84;-0.03939
14.842;-0.02406
14.844;-0.0355
14.846;-0.04805
14.848;-0.03728
14.85;-0.01018
14.852;-0.03701
14.854;0.00683
14.856;-0.02361
14.858;-0.0252
14.86;0.00373
14.862;-0.02378
14.864;-0.01025
14.866;-0.00756
14.868;-0.01321
14.87;-0.03565
14.872;0.02895
14.874;0.00816
14.876;0.01506
14.878;0.02409
14.88;0.0126
14.882;0.02824
14.884;0.02751
14.886;-0.00948
14.888;0.05628
14.89;0.04396
14.892;0.07233
14.894;0.04051
14.896;0.01557
14.898;0.07089
14.9;0.03118
14.902;-0.02348
14.904;0.07122
14.906;0.02342
14.908;0.02186
14.91;0.03173
14.912;0.00029
14.914;-0.00141
14.916;0.00662
14.918;0.04209
14.92;0.01938
14.922;-0.00476
14.924;-0.01607
14.926;-0.00506
14.928;-0.0227
14.93;-0.02454
14.932;-0.02496
14.934;-0.0322
14.936;-0.06436
14.938;-0.0096
14.94;-0.02281
14.942;-0.01272
14.944;-0.03429
14.946;-0.02897
14.948;-0.03449
14.95;-0.04452
14.952;-0.06049
14.954;-0.01064
14.956;-0.03535
14.958;-0.01966
14.96;-0.05508
14.962;-0.00992
14.964;-0.04437
14.966;-0.04181
14.968;-0.03213
14.97;-0.01617
14.972;-0.0221
14.974;-0.05209
14.976;-0.05125
14.978;-0.05751
14.98;-0.0597
14.982;-0.02504
14.984;-0.03558
14.986;-0.01371
14.988;-0.0192
14.99;-0.08628
14.992;-0.05083
14.994;-0.04753
14.996;-0.08234
14.998;-0.05181
15.0;-0.05771
15.002;-0.07374
15.004;-0.07732
15.006;-0.0545
15.008;-0.03822
15.01;-0.0575
15.012;-0.04553
15.014;-0.05932
15.016;-0.05027
15.018;-0.06747
15.02;-0.01392
15.022;-0.07489
15.024;-0.05131
15.026;-0.07394
15.028;-0.0623
15.03;-0.08215
15.032;-0.07821
15.034;-0.06156
15.036;-0.08177
15.038;-0.1338
15.04;-0.11005
15.042;-0.11444
15.044;-0.10923
15.046;-0.08895
15.048;-0.06747
15.05;0.02569
15.052;0.10872
15.054;0.18058
15.056;0.27687
15.058;0.34625
15.06;0.42945
15.062;0.53921
15.064;0.66324
15.066;0.71658
15.068;0.82569
15.07;0.87248
15.072;0.92917
15.074;0.9543
15.076;0.89588
15.078;0.93981
15.08;0.84428
15.082;0.78121
15.084;0.71821
15.086;0.61385
15.088;0.47751
15.09;0.39218
15.092;0.28919
15.094;0.21894
15.096;0.03606
15.098;-0.03072
15.1;-0.09269
15.102;-0.13045
15.104;-0.21938
15.106;-0.2412
15.108;-0.2624
15.11;-0.22467
15.112;-0.23428
15.114;-0.20345
15.116;-0.21157
15.118;-0.20169
15.12;-0.17051
15.122;-0.10466
15.124;-0.09441
15.126;-0.11017
15.128;-0.06171
15.13;-0.06104
15.132;-0.08928
15.134;-0.08929
15.136;-0.03869
15.138;-0.03776
15.14;-0.04686
15.142;-0.03143
15.144;-0.05356
15.146;-0.04253
15.148;-0.0758
15.15;-0.04756
15.152;-0.03944
15.154;-0.0941
15.156;-0.0383
15.158;-0.04523
15.16;-0.04676
15.162;-0.00387
15.164;-0.04042
15.166;-0.06397
15.168;-0.03903
15.17;-0.0463
15.172;-0.03386
15.174;-0.04179
15.176;-0.05866
15.178;-0.01536
15.18;-0.01691
15.182;-0.04875
15.184;-0.0683
15.186;-0.05291
15.188;-0.00241
15.19;-0.04357
15.192;-0.05457
15.194;-0.06074
15.196;-0.02769
15.198;-0.03743
15.2;-0.03681
15.202;-0.03507
15.204;-0.03508
15.206;-0.04912
15.208;-0.02123
15.21;-0.0755
15.212;-0.03907
15.214;-0.02351
15.216;-0.02606
15.218;0.00321
15.22;-0.03791
15.222;-0.00155
15.224;-0.01417
15.226;-0.04713
15.228;0.00319
15.23;-0.02646
15.232;0.0077
15.234;0.02052
15.236;-0.01304
15.238;0.03291
15.24;-0.02809
15.242;0.04857
15.244;0.01675
15.246;0.01549
15.248;0.05001
15.25;0.03513
15.252;0.06155
15.254;0.0481
15.256;0.00329
15.258;0.0508
15.26;0.05324
15.262;0.07303
15.264;0.07259
15.266;0.10356
15.268;0.09847
15.27;0.05032
15.272;0.10058
15.274;0.07377
15.276;0.0965
15.278;0.13447
15.28;0.10877
15.282;0.15295
15.284;0.12212
15.286;0.0989
15.288;0.14186
15.29;0.16846
15.292;0.13782
15.294;0.14225
15.296;0.17058
15.298;0.16545
15.3;0.14857
15.302;0.20467
15.304;0.16182
15.306;0.20169
15.308;0.19154
15.31;0.16578
15.312;0.20264
15.314;0.18286
15.316;0.21437
15.318;0.17093
15.32;0.2189
15.322;0.18422
15.324;0.21277
15.326;0.21183
15.328;0.18786
15.33;0.18619
15.332;0.21053
15.334;0.20942
15.336;0.20657
15.338;0.21238
15.34;0.20247
15.342;0.17711
15.344;0.16111
15.346;0.20117
15.348;0.18588
15.35;0.1553
15.352;0.19151
15.354;0.16962
15.356;0.14735
15.358;0.147
15.36;0.15114
15.362;0.13915
15.364;0.14655
15.366;0.1397
15.368;0.15725
15.37;0.13859
15.372;0.11568
15.374;0.0987
15.376;0.09514
15.378;0.07832
15.38;0.08654
15.382;0.10252
15.384;0.06377
15.386;0.06894
15.388;0.08021
15.39;0.06391
15.392;0.06252
15.394;0.06313
15.396;0.05992
15.398;0.03502
15.4;0.03851
15.402;0.02785
15.404;0.02924
15.406;0.03567
15.408;-0.0016
15.41;0.04809
15.412;-0.01844
15.414;0.01256
15.416;-0.02986
15.418;0.00782
15.42;-0.00162
15.422;-0.0174
15.424;-0.00499
15.426;-0.02218
15.428;-0.00858
15.43;-0.03937
15.432;-0.03527
15.434;-0.0038
15.436;-0.03032
15.438;-0.03704
15.44;-0.05824
15.442;-0.08522
15.444;-0.02598
15.446;-0.02929
15.448;-0.01039
15.45;-0.05942
15.452;-0.0388
15.454;-0.01718
15.456;-0.01348
15.458;-0.02836
15.46;-0.05858
15.462;-0.0607
15.464;-0.0259
15.466;-0.03854
15.468;-0.0712
15.47;-0.04902
15.472;-0.03573
15.474;-0.03199
15.476;-0.01757
15.478;-0.03796
15.48;-0.05966
15.482;-0.01733
15.484;-0.04047
15.486;-0.07828
15.488;-0.04823
15.49;-0.03621
15.492;-0.08535
15.494;-0.02862
15.496;-0.05683
15.498;-0.07763
15.5;-0.01423
15.502;-0.05895
15.504;-0.0711
15.506;-0.05056
15.508;-0.03911
15.51;-0.04554
15.512;-0.0653
15.514;-0.03501
15.516;-0.01918
15.518;-0.06456
15.52;-0.08545
15.522;-0.05223
15.524;-0.04767
15.526;-0.04509
15.528;-0.03838
15.53;-0.03149
15.532;-0.02858
15.534;-0.05363
15.536;-0.0271
15.538;-0.04358
15.54;-0.02847
15.542;-0.02776
15.544;-0.04756
15.546;-0.02739
15.548;-0.0618
15.55;-0.05602
15.552;-0.07913
15.554;-0.00809
15.556;-0.04229
15.558;-0.06308
15.56;-0.07031
15.562;-0.06572
15.564;-0.04493
15.566;-0.07258
15.568;-0.05034
15.57;-0.0305
15.572;-0.07545
15.574;-0.04512
15.576;-0.04148
15.578;-0.04607
15.58;-0.04674
15.582;-0.03428
15.584;-0.0459
15.586;-0.06217
15.588;-0.04729
15.59;-0.06862
15.592;-0.0572
15.594;-0.05759
15.596;-0.05615
15.598;-0.04587
15.6;-0.04666
15.602;-0.0355
15.604;-0.06712
15.606;-0.05166
15.608;-0.0642
15.61;-0.07402
15.612;-0.02452
15.614;-0.05365
15.616;-0.02765
15.618;-0.04984
15.62;-0.0462
15.622;-0.04713
15.624;-0.04461
15.626;-0.05482
15.628;-0.02701
15.63;-0.04565
15.632;-0.02059
15.634;-0.03385
15.636;-0.01432
15.638;-0.03676
15.64;-0.04946
15.642;-0.04894
15.644;-0.04743
15.646;-0.08141
15.648;-0.0397
15.65;-0.06913
15.652;-0.059
15.654;-0.03308
15.656;-0.03124
15.658;-0.04633
15.66;-0.05225
15.662;-0.03393
15.664;-0.04936
15.666;-0.04801
15.668;-0.05684
15.67;-0.05831
15.672;-0.05899
15.674;-0.06913
15.676;-0.03003
15.678;-0.05639
15.68;-0.00104
15.682;-0.05239
15.684;-0.0115
15.686;-0.02418
15.688;-0.06152
15.69;-0.03577
15.692;-0.03513
15.694;-0.01769
15.696;-0.04228
15.698;-0.03629
15.7;-0.05617
15.702;-0.02414
15.704;-0.06702
15.706;-0.06337
15.708;-0.03679
15.71;-0.0683
15.712;-0.03483
15.714;-0.0458
15.716;-0.05254
15.718;-0.04979
15.72;-0.03611
15.722;-0.04788
15.724;-0.01489
15.726;-0.03027
15.728;0.00804
15.73;-0.00949
15.732;-0.01885
15.734;-0.01224
15.736;-0.00555
15.738;-0.02102
15.74;-0.03478
15.742;-0.02864
15.744;-0.01535
15.746;-0.02042
15.748;-0.0108
15.75;0.00358
15.752;0.02755
15.754;0.03004
15.756;0.00347
15.758;0.01807
15.76;0.0164
15.762;0.03652
15.764;0.00943
15.766;0.02792
15.768;0.0329
15.77;0.05968
15.772;0.02978
15.774;0.05419
15.776;0.0208
15.778;0.03683
15.78;0.01631
15.782;0.04394
15.784;0.05208
15.786;0.06589
15.788;0.02299
15.79;0.05559
15.792;-0.01149
15.794;0.04045
15.796;0.058
15.798;0.00036
15.8;0.01786
15.802;0.01635
15.804;-0.00083
15.806;-0.01104
15.808;-0.00278
15.81;-0.01585
15.812;-0.00769
15.814;0.00331
15.816;-0.00971
15.818;-0.00862
15.82;-0.00193
15.822;-0.0109
15.824;-0.04228
15.826;-0.04939
15.828;-0.04168
15.83;-0.0265
15.832;-0.0452
15.834;-0.04264
15.836;-0.02491
15.838;-0.03345
15.84;0.01118
15.842;-0.06136
15.844;-0.04376
15.846;-0.06566
15.848;-0.03575
15.85;-0.03829
15.852;-0.04601
15.854;-0.03564
15.856;-0.04049
15.858;-0.0393
15.86;-0.05888
15.862;-0.05047
15.864;-0.03878
15.866;-0.07767
15.868;-0.0376
15.87;-0.00901
15.872;-0.02983
15.874;-0.01611
15.876;-0.04676
15.878;-0.02182
15.88;-0.04675
15.882;-0.05644
15.884;-0.06005
15.886;-0.00472
15.888;-0.0401
15.89;-0.04584
15.892;-0.01258
15.894;-0.06691
15.896;-0.01899
15.898;-0.03823
15.9;-0.02927
15.902;-0.04434
15.904;-0.08482
15.906;-0.04675
15.908;-0.05159
15.91;-0.06517
15.912;-0.05311
15.914;-0.0662
15.916;-0.10568
15.918;-0.09372
15.92;-0.10387
15.922;-0.11989
15.924;-0.09604
15.926;-0.06056
15.928;-0.02181
15.93;0.00222
15.932;0.09873
15.934;0.15814
15.936;0.26586
15.938;0.36607
15.94;0.44766
15.942;0.5485
15.944;0.64013
15.946;0.75722
15.948;0.82544
15.95;0.89281
15.952;0.90811
15.954;0.94364
15.956;0.93571
15.958;0.95115
15.96;0.8771
15.962;0.79243
15.964;0.69918
15.966;0.62755
15.968;0.5162
15.97;0.41138
15.972;0.29531
15.974;0.18026
15.976;0.0754
15.978;0.00361
15.98;-0.09201
15.982;-0.14227
15.984;-0.18662
15.986;-0.23688
15.988;-0.2253
15.99;-0.23554
15.992;-0.21648
15.994;-0.21971
15.996;-0.21619
15.998;-0.19397
16.0;-0.16173
16.002;-0.13284
16.004;-0.12822
16.006;-0.077
16.008;-0.07776
16.01;-0.06501
16.012;-0.03033
16.014;-0.07147
16.016;-0.05136
16.018;-0.05902
16.02;-0.01423
16.022;-0.05105
16.024;-0.03497
16.026;-0.04594
16.028;-0.04923
16.03;-0.02429
16.032;-0.02447
16.034;-0.03898
16.036;-0.04921
16.038;0.00087
16.04;-0.00211
16.042;-0.03735
16.044;-0.04733
16.046;-0.02555
16.048;-0.00035
16.05;-0.02604
16.052;-0.02911
16.054;-0.06005
16.056;-0.0535
16.058;-0.01315
16.06;-0.02016
16.062;-0.03872
16.064;-0.0032
16.066;-0.00375
16.068;-0.04992
16.07;0.03785
16.072;0.00504
16.074;-0.03357
16.076;-0.03743
16.078;-0.03069
16.08;-0.03326
16.082;-0.01311
16.084;0.00547
16.086;0.00556
16.088;-0.01826
16.09;0.0051
16.092;-0.00755
16.094;-0.00485
16.096;-0.01153
16.098;-0.01026
16.1;-0.03211
16.102;0.02281
16.104;-0.00329
16.106;0.01004
16.108;0.01726
16.11;0.04691
16.112;0.01308
16.114;0.01569
16.116;0.03341
16.118;0.06175
16.12;0.0624
16.122;0.06053
16.124;0.03117
16.126;0.03146
16.128;0.01344
16.13;0.03135
16.132;0.04851
16.134;0.05467
16.136;0.08943
16.138;0.04453
16.14;0.08752
16.142;0.10775
16.144;0.08664
16.146;0.11292
16.148;0.07562
16.15;0.12283
16.152;0.11009
16.154;0.09736
16.156;0.11762
16.158;0.10629
16.16;0.18676
16.162;0.15253
16.164;0.17018
16.166;0.14947
16.168;0.14365
16.17;0.15273
16.172;0.20089
16.174;0.18904
16.176;0.16656
16.178;0.19197
16.18;0.1667
16.182;0.23388
16.184;0.20901
16.186;0.19987
16.188;0.21504
16.19;0.22141
16.192;0.20298
16.194;0.1932
16.196;0.21792
16.198;0.22224
16.2;0.23905
16.202;0.22233
16.204;0.21697
16.206;0.18646
16.208;0.2102
16.21;0.2031
16.212;0.23488
16.214;0.22945
16.216;0.23308
16.218;0.23566
16.22;0.21543
16.222;0.23076
16.224;0.18682
16.226;0.20081
16.228;0.2187
16.23;0.21809
16.232;0.19818
16.234;0.20346
16.236;0.23864
16.238;0.17368
16.24;0.15856
16.242;0.18829
16.244;0.17423
16.246;0.14169
16.248;0.13975
16.25;0.16662
16.252;0.12004
16.254;0.13984
16.256;0.13042
16.258;0.1187
16.26;0.11156
16.262;0.10796
16.264;0.08391
16.266;0.09836
16.268;0.09654
16.27;0.0323
16.272;0.09547
16.274;0.0907
16.276;0.07591
16.278;0.06028
16.28;0.05543
16.282;0.06047
16.284;0.04546
16.286;0.03869
16.288;0.05217
16.29;0.04057
16.292;0.05171
16.294;0.01263
16.296;0.04269
16.298;0.00645
16.3;-0.01524
16.302;-0.00312
16.304;0.03176
16.306;0.0351
16.308;0.00598
16.31;-0.02399
16.312;0.01799
16.314;-0.00245
16.316;0.01393
16.318;0.00137
16.32;0.00247
16.322;-0.00853
16.324;-0.03368
16.326;0.0017
16.328;-0.02887
16.33;-0.0239
16.332;-0.0088
16.334;-0.03628
16.336;-0.01091
16.338;-0.00556
16.34;-0.02243
16.342;-0.02421
16.344;-0.00061
16.346;-0.01049
16.348;-0.0446
16.35;0.00079
16.352;-0.00612
16.354;-0.00466
16.356;-0.04297
16.358;-0.02883
16.36;-0.00825
16.362;-0.00272
16.364;-0.0118
16.366;-0.02001
16.368;0.01185
16.37;-0.00791
16.372;-0.02613
16.374;0.01127
16.376;-0.0135
16.378;-0.01786
16.38;0.0005
16.382;0.0101
16.384;-0.02639
16.386;-0.02319
16.388;-0.01315
16.39;-0.02608
16.392;-0.01902
16.394;-0.00491
16.396;-0.02561
16.398;-0.01736
16.4;-0.00929
16.402;-0.02474
16.404;-0.04076
16.406;-0.0257
16.408;-0.02845
16.41;0.02071
16.412;-0.01568
16.414;-0.00986
16.416;-0.02753
16.418;-0.01407
16.42;-0.00685
16.422;0.00091
16.424;-0.00831
16.426;0.02697
16.428;-0.00814
16.43;-0.01249
16.432;0.01965
16.434;-0.02784
16.436;0.00375
16.438;-0.00573
16.44;-0.0098
16.442;-0.01592
16.444;-0.04248
16.446;-0.03484
16.448;-0.01254
16.45;0.00105
16.452;-0.02485
16.454;-0.02102
16.456;-0.04473
16.458;-0.00751
16.46;-0.03383
16.462;-0.0248
16.464;-0.02254
16.466;-0.02152
16.468;-0.03709
16.47;-0.04529
16.472;-0.0348
16.474;-0.00998
16.476;-0.00868
16.478;-0.01209
16.48;-0.04596
16.482;0.00644
16.484;0.0099
16.486;-0.04262
16.488;-0.02669
16.49;0.00219
16.492;-0.03887
16.494;0.00079
16.496;0.00674
16.498;-0.00453
16.5;-0.01044
16.502;-0.03539
16.504;-0.01405
16.506;0.01168
16.508;0.01623
16.51;-0.00309
16.512;-0.03293
16.514;-0.01268
16.516;0.00927
16.518;-0.02265
16.52;-0.00811
16.522;-0.01684
16.524;-0.01072
16.526;-0.00121
16.528;-0.00229
16.53;-0.02022
16.532;0.04583
16.534;-0.03178
16.536;-0.0072
16.538;-0.00319
16.54;0.00208
16.542;-0.0002
16.544;-0.0027
16.546;0.01605
16.548;-0.03154
16.55;-0.01456
16.552;0.02531
16.554;-0.02219
16.556;-0.00644
16.558;-0.01211
16.56;-0.00444
16.562;-0.02095
16.564;-0.00555
16.566;-0.03186
16.568;-0.03337
16.57;-0.02136
16.572;0.00788
16.574;0.01634
16.576;-0.00754
16.578;-0.01774
16.58;0.02718
16.582;0.02532
16.584;-0.00727
16.586;0.00538
16.588;-0.01317
16.59;-0.02364
16.592;0.02546
16.594;-0.01978
16.596;0.00348
16.598;0.0065
16.6;-0.02309
16.602;0.00037
16.604;-0.00616
16.606;-0.01085
16.608;0.01139
16.61;0.03402
16.612;-0.01383
16.614;0.00193
16.616;-0.01668
16.618;0.03202
16.62;-0.00601
16.622;0.0226
16.624;-0.00357
16.626;-4e-05
16.628;-0.00877
16.63;-0.0116
16.632;0.03516
16.634;0.03221
16.636;0.04073
16.638;0.04266
16.64;0.02503
16.642;0.05662
16.644;0.01747
16.646;0.03194
16.648;0.04823
16.65;0.05904
16.652;0.04646
16.654;0.05943
16.656;0.07439
16.658;0.06624
16.66;0.08229
